# Pulseq sequence file
# Created by MATLAB mr toolbox

[VERSION]
major 1
minor 5
revision 1

[DEFINITIONS]
AdcRasterTime 2e-06 
BlockDurationRaster 2e-05 
FOV 0.22 0.22 0.005 
GradientRasterTime 2e-05 
NumSlices 1 
PeakRF 31.2443806 
RadiofrequencyRasterTime 2e-06 
RequiredExtensions  
TR 0.08072 
TotalDuration 0.0292 

# Format of blocks:
# NUM DUR RF  GX  GY  GZ  ADC  EXT
[BLOCKS]
 1 124   1   0   0   1  0  1
 2  24   0   4   3   2  0  0
 3 124   2   6   5   1  0  2
 4  37   0   7   8   2  1  0
 5 124   3   6   9   1  0  0
 6  37   0   7   5   2  2  0
 7 124   2   6   3   1  0  0
 8  37   0   7  10   2  1  0
 9 124   3   6  11   1  0  0
10  37   0   7  12   2  2  0
11 124   2   6  13   1  0  0
12  37   0   7  14   2  1  0
13 124   3   6  15   1  0  0
14  37   0   7  13   2  2  0
15 124   2   6  12   1  0  0
16  37   0   7  11   2  1  0
17 124   3   6  10   1  0  0
18  37   0   7   3   2  2  0
19  24   0   6   0   0  0  3

# Format of RF events:
# id ampl. mag_id phase_id time_shape_id center delay freqPPM phasePPM freq phase use
# ..   Hz      ..       ..            ..     us    us     ppm  rad/MHz   Hz   rad  ..
# Field 'use' is the initial of: 
#   excitation refocusing inversion saturation preparation other undefined
[RF]
1      15.6222 1 2 0 1000 480 0 0 0 0 e
2      31.2444 1 2 0 1000 480 0 0 0 3.14159 e
3      31.2444 1 2 0 1000 480 0 0 0 0 e

# Format of arbitrary gradients:
#   time_shape_id of 0 means default timing (stepping with grad_raster starting at 1/2 of grad_raster)
# id amplitude first last amp_shape_id time_shape_id delay
# ..      Hz/m  Hz/m Hz/m        ..         ..          us
[GRADIENTS]
1 -1.08214e+06            0       150000 3 4 180
2  1.08214e+06       150000            0 5 6 0
4  1.13636e+06            0  1.13636e+06 7 8 260
6  1.13636e+06  1.13636e+06            0 9 10 0
7 -1.13636e+06            0  1.13636e+06 11 12 0

# Format of trapezoid gradients:
# id amplitude rise flat fall delay
# ..      Hz/m   us   us   us    us
[TRAP]
 3      29644.3  20  440  20   0
 5     -29644.3  20  440  20   0
 8     -39525.7  20  440  20   0
 9      39525.7  20  440  20   0
10     -19762.8  20  440  20   0
11      19762.8  20  440  20   0
12     -9881.42  20  440  20   0
13      9881.42  20  440  20   0
14            0  20  440  20   0
15           -0  20  440  20   0

# Format of ADC events:
# id num dwell delay freqPPM phasePPM freq phase phase_id
# ..  ..    ns    us     ppm  rad/MHz   Hz   rad       ..
[ADC]
1 64 4000 480 0 0 0 3.14159 0
2 64 4000 480 0 0 0 0 0

# Format of extension lists:
# id type ref next_id
# next_id of 0 terminates the list
# Extension list is followed by extension specifications
[EXTENSIONS]
1 1 1 0
2 1 2 0
3 1 3 0

# Extension specification for setting labels:
# id set labelstring
extension LABELSET 1
1 1 ONCE
2 0 ONCE
3 2 ONCE

# Sequence Shapes
[SHAPES]

shape_id 1
num_samples 1000
7.42968024e-07
6.73143225e-06
1.88226035e-05
3.71356077e-05
6.17894705e-05
9.29031057e-05
0.000130595302
0.000174984711
0.000226189834
0.000284329011
0.000349520407
0.000421881999
0.000501531564
0.000588586669
0.000683164654
0.000785382623
0.000895357428
0.00101320566
0.00113904364
0.00127298739
0.00141515264
0.00156565481
0.00172460898
0.00189212992
0.00206833203
0.00225332935
0.00244723553
0.00265016387
0.00286222725
0.00308353812
0.00331420853
0.00355435009
0.00380407395
0.0040634908
0.00433271087
0.00461184389
0.00490099908
0.00520028518
0.00550981039
0.00582968236
0.00616000822
0.00650089451
0.00685244724
0.00721477178
0.00758797296
0.00797215497
0.00836742137
0.00877387513
0.00919161852
0.00962075321
0.0100613802
0.0105135997
0.0109775113
0.0114532141
0.0119408061
0.0124403848
0.012952047
0.0134758885
0.0140120047
0.01456049
0.015121438
0.0156949415
0.0162810927
0.0168799828
0.0174917022
0.0181163404
0.0187539862
0.0194047274
0.0200686511
0.0207458433
0.0214363892
0.0221403731
0.0228578785
0.0235889877
0.0243337823
0.0250923429
0.0258647492
0.0266510796
0.027451412
0.028265823
0.0290943884
0.0299371827
0.0307942796
0.0316657519
0.032551671
0.0334521075
0.034367131
0.0352968098
0.0362412113
0.0372004017
0.0381744463
0.0391634091
0.0401673531
0.04118634
0.0422204306
0.0432696845
0.0443341601
0.0454139145
0.046509004
0.0476194835
0.0487454066
0.0498868259
0.0510437928
0.0522163574
0.0534045687
0.0546084743
0.0558281207
0.0570635532
0.0583148158
0.0595819511
0.0608650007
0.0621640047
0.0634790022
0.0648100308
0.0661571268
0.0675203253
0.0688996602
0.0702951637
0.0717068672
0.0731348003
0.0745789917
0.0760394685
0.0775162565
0.0790093802
0.0805188627
0.0820447258
0.0835869899
0.085145674
0.0867207959
0.0883123717
0.0899204165
0.0915449436
0.0931859653
0.0948434923
0.0965175338
0.0982080979
0.099915191
0.101638818
0.103378983
0.105135688
0.106908934
0.10869872
0.110505044
0.112327902
0.114167291
0.116023203
0.11789563
0.119784564
0.121689993
0.123611905
0.125550287
0.127505124
0.129476399
0.131464093
0.133468188
0.135488663
0.137525494
0.139578659
0.141648131
0.143733885
0.14583589
0.147954119
0.150088538
0.152239116
0.154405819
0.156588609
0.158787452
0.161002306
0.163233133
0.165479891
0.167742535
0.170021023
0.172315308
0.174625341
0.176951074
0.179292457
0.181649437
0.184021961
0.186409973
0.188813417
0.191232236
0.19366637
0.196115757
0.198580336
0.201060043
0.203554812
0.206064576
0.208589268
0.211128817
0.213683153
0.216252202
0.218835891
0.221434145
0.224046885
0.226674035
0.229315514
0.23197124
0.234641132
0.237325104
0.240023072
0.242734949
0.245460646
0.248200073
0.250953139
0.253719751
0.256499817
0.259293239
0.262099922
0.264919768
0.267752676
0.270598547
0.273457277
0.276328763
0.2792129
0.282109583
0.285018703
0.287940151
0.290873817
0.293819589
0.296777355
0.299747001
0.30272841
0.305721466
0.308726052
0.311742046
0.31476933
0.31780778
0.320857274
0.323917688
0.326988895
0.330070769
0.333163182
0.336266004
0.339379105
0.342502353
0.345635615
0.348778758
0.351931645
0.35509414
0.358266107
0.361447405
0.364637896
0.367837437
0.371045888
0.374263105
0.377488943
0.380723257
0.383965901
0.387216727
0.390475587
0.39374233
0.397016806
0.400298864
0.403588351
0.406885112
0.410188994
0.41349984
0.416817494
0.420141798
0.423472594
0.426809722
0.430153021
0.433502331
0.436857488
0.44021833
0.443584693
0.446956412
0.450333321
0.453715253
0.457102041
0.460493517
0.463889512
0.467289855
0.470694376
0.474102904
0.477515266
0.48093129
0.484350802
0.487773627
0.49119959
0.494628517
0.498060229
0.501494551
0.504931303
0.508370309
0.511811389
0.515254362
0.51869905
0.52214527
0.525592843
0.529041585
0.532491314
0.535941847
0.539393001
0.542844592
0.546296434
0.549748343
0.553200134
0.55665162
0.560102616
0.563552934
0.567002387
0.570450787
0.573897947
0.577343679
0.580787793
0.584230101
0.587670414
0.591108541
0.594544294
0.597977481
0.601407912
0.604835397
0.608259745
0.611680765
0.615098266
0.618512055
0.621921942
0.625327734
0.62872924
0.632126268
0.635518625
0.638906119
0.642288558
0.64566575
0.649037502
0.652403621
0.655763916
0.659118193
0.662466261
0.665807926
0.669142997
0.672471281
0.675792586
0.67910672
0.68241349
0.685712705
0.689004174
0.692287704
0.695563103
0.698830182
0.702088748
0.705338611
0.70857958
0.711811464
0.715034075
0.718247221
0.721450713
0.724644363
0.727827981
0.731001378
0.734164366
0.737316758
0.740458366
0.743589003
0.746708482
0.749816617
0.752913223
0.755998113
0.759071103
0.762132009
0.765180647
0.768216833
0.771240385
0.77425112
0.777248857
0.780233414
0.783204612
0.786162269
0.789106208
0.792036248
0.794952213
0.797853925
0.800741207
0.803613883
0.806471778
0.809314717
0.812142527
0.814955035
0.817752068
0.820533455
0.823299025
0.826048608
0.828782036
0.83149914
0.834199752
0.836883707
0.839550838
0.842200981
0.844833972
0.847449648
0.850047848
0.852628409
0.855191173
0.857735979
0.86026267
0.862771089
0.86526108
0.867732488
0.870185158
0.872618937
0.875033675
0.877429219
0.87980542
0.88216213
0.884499201
0.886816486
0.889113841
0.891391121
0.893648183
0.895884886
0.898101088
0.900296651
0.902471436
0.904625307
0.906758127
0.908869762
0.910960079
0.913028946
0.915076232
0.917101808
0.919105546
0.921087318
0.923047
0.924984468
0.926899597
0.928792268
0.93066236
0.932509754
0.934334333
0.936135981
0.937914583
0.939670026
0.941402199
0.943110991
0.944796294
0.946457999
0.948096002
0.949710197
0.951300482
0.952866754
0.954408915
0.955926865
0.957420508
0.958889747
0.96033449
0.961754642
0.963150115
0.964520818
0.965866663
0.967187564
0.968483437
0.969754198
0.970999765
0.97222006
0.973415004
0.974584519
0.975728531
0.976846966
0.977939752
0.97900682
0.9800481
0.981063526
0.982053031
0.983016554
0.98395403
0.984865401
0.985750608
0.986609592
0.9874423
0.988248677
0.989028672
0.989782234
0.990509314
0.991209866
0.991883845
0.992531207
0.99315191
0.993745914
0.99431318
0.994853674
0.995367358
0.995854201
0.99631417
0.996747236
0.997153372
0.99753255
0.997884747
0.998209939
0.998508106
0.998779228
0.999023287
0.999240269
0.999430159
0.999592944
0.999728615
0.999837162
0.999918578
0.999972859
1
1
0.999972859
0.999918578
0.999837162
0.999728615
0.999592944
0.999430159
0.999240269
0.999023287
0.998779228
0.998508106
0.998209939
0.997884747
0.99753255
0.997153372
0.996747236
0.99631417
0.995854201
0.995367358
0.994853674
0.99431318
0.993745914
0.99315191
0.992531207
0.991883845
0.991209866
0.990509314
0.989782234
0.989028672
0.988248677
0.9874423
0.986609592
0.985750608
0.984865401
0.98395403
0.983016554
0.982053031
0.981063526
0.9800481
0.97900682
0.977939752
0.976846966
0.975728531
0.974584519
0.973415004
0.97222006
0.970999765
0.969754198
0.968483437
0.967187564
0.965866663
0.964520818
0.963150115
0.961754642
0.96033449
0.958889747
0.957420508
0.955926865
0.954408915
0.952866754
0.951300482
0.949710197
0.948096002
0.946457999
0.944796294
0.943110991
0.941402199
0.939670026
0.937914583
0.936135981
0.934334333
0.932509754
0.93066236
0.928792268
0.926899597
0.924984468
0.923047
0.921087318
0.919105546
0.917101808
0.915076232
0.913028946
0.910960079
0.908869762
0.906758127
0.904625307
0.902471436
0.900296651
0.898101088
0.895884886
0.893648183
0.891391121
0.889113841
0.886816486
0.884499201
0.88216213
0.87980542
0.877429219
0.875033675
0.872618937
0.870185158
0.867732488
0.86526108
0.862771089
0.86026267
0.857735979
0.855191173
0.852628409
0.850047848
0.847449648
0.844833972
0.842200981
0.839550838
0.836883707
0.834199752
0.83149914
0.828782036
0.826048608
0.823299025
0.820533455
0.817752068
0.814955035
0.812142527
0.809314717
0.806471778
0.803613883
0.800741207
0.797853925
0.794952213
0.792036248
0.789106208
0.786162269
0.783204612
0.780233414
0.777248857
0.77425112
0.771240385
0.768216833
0.765180647
0.762132009
0.759071103
0.755998113
0.752913223
0.749816617
0.746708482
0.743589003
0.740458366
0.737316758
0.734164366
0.731001378
0.727827981
0.724644363
0.721450713
0.718247221
0.715034075
0.711811464
0.70857958
0.705338611
0.702088748
0.698830182
0.695563103
0.692287704
0.689004174
0.685712705
0.68241349
0.67910672
0.675792586
0.672471281
0.669142997
0.665807926
0.662466261
0.659118193
0.655763916
0.652403621
0.649037502
0.64566575
0.642288558
0.638906119
0.635518625
0.632126268
0.62872924
0.625327734
0.621921942
0.618512055
0.615098266
0.611680765
0.608259745
0.604835397
0.601407912
0.597977481
0.594544294
0.591108541
0.587670414
0.584230101
0.580787793
0.577343679
0.573897947
0.570450787
0.567002387
0.563552934
0.560102616
0.55665162
0.553200134
0.549748343
0.546296434
0.542844592
0.539393001
0.535941847
0.532491314
0.529041585
0.525592843
0.52214527
0.51869905
0.515254362
0.511811389
0.508370309
0.504931303
0.501494551
0.498060229
0.494628517
0.49119959
0.487773627
0.484350802
0.48093129
0.477515266
0.474102904
0.470694376
0.467289855
0.463889512
0.460493517
0.457102041
0.453715253
0.450333321
0.446956412
0.443584693
0.44021833
0.436857488
0.433502331
0.430153021
0.426809722
0.423472594
0.420141798
0.416817494
0.41349984
0.410188994
0.406885112
0.403588351
0.400298864
0.397016806
0.39374233
0.390475587
0.387216727
0.383965901
0.380723257
0.377488943
0.374263105
0.371045888
0.367837437
0.364637896
0.361447405
0.358266107
0.35509414
0.351931645
0.348778758
0.345635615
0.342502353
0.339379105
0.336266004
0.333163182
0.330070769
0.326988895
0.323917688
0.320857274
0.31780778
0.31476933
0.311742046
0.308726052
0.305721466
0.30272841
0.299747001
0.296777355
0.293819589
0.290873817
0.287940151
0.285018703
0.282109583
0.2792129
0.276328763
0.273457277
0.270598547
0.267752676
0.264919768
0.262099922
0.259293239
0.256499817
0.253719751
0.250953139
0.248200073
0.245460646
0.242734949
0.240023072
0.237325104
0.234641132
0.23197124
0.229315514
0.226674035
0.224046885
0.221434145
0.218835891
0.216252202
0.213683153
0.211128817
0.208589268
0.206064576
0.203554812
0.201060043
0.198580336
0.196115757
0.19366637
0.191232236
0.188813417
0.186409973
0.184021961
0.181649437
0.179292457
0.176951074
0.174625341
0.172315308
0.170021023
0.167742535
0.165479891
0.163233133
0.161002306
0.158787452
0.156588609
0.154405819
0.152239116
0.150088538
0.147954119
0.14583589
0.143733885
0.141648131
0.139578659
0.137525494
0.135488663
0.133468188
0.131464093
0.129476399
0.127505124
0.125550287
0.123611905
0.121689993
0.119784564
0.11789563
0.116023203
0.114167291
0.112327902
0.110505044
0.10869872
0.106908934
0.105135688
0.103378983
0.101638818
0.099915191
0.0982080979
0.0965175338
0.0948434923
0.0931859653
0.0915449436
0.0899204165
0.0883123717
0.0867207959
0.085145674
0.0835869899
0.0820447258
0.0805188627
0.0790093802
0.0775162565
0.0760394685
0.0745789917
0.0731348003
0.0717068672
0.0702951637
0.0688996602
0.0675203253
0.0661571268
0.0648100308
0.0634790022
0.0621640047
0.0608650007
0.0595819511
0.0583148158
0.0570635532
0.0558281207
0.0546084743
0.0534045687
0.0522163574
0.0510437928
0.0498868259
0.0487454066
0.0476194835
0.046509004
0.0454139145
0.0443341601
0.0432696845
0.0422204306
0.04118634
0.0401673531
0.0391634091
0.0381744463
0.0372004017
0.0362412113
0.0352968098
0.034367131
0.0334521075
0.032551671
0.0316657519
0.0307942796
0.0299371827
0.0290943884
0.028265823
0.027451412
0.0266510796
0.0258647492
0.0250923429
0.0243337823
0.0235889877
0.0228578785
0.0221403731
0.0214363892
0.0207458433
0.0200686511
0.0194047274
0.0187539862
0.0181163404
0.0174917022
0.0168799828
0.0162810927
0.0156949415
0.015121438
0.01456049
0.0140120047
0.0134758885
0.012952047
0.0124403848
0.0119408061
0.0114532141
0.0109775113
0.0105135997
0.0100613802
0.00962075321
0.00919161852
0.00877387513
0.00836742137
0.00797215497
0.00758797296
0.00721477178
0.00685244724
0.00650089451
0.00616000822
0.00582968236
0.00550981039
0.00520028518
0.00490099908
0.00461184389
0.00433271087
0.0040634908
0.00380407395
0.00355435009
0.00331420853
0.00308353812
0.00286222725
0.00265016387
0.00244723553
0.00225332935
0.00206833203
0.00189212992
0.00172460898
0.00156565481
0.00141515264
0.00127298739
0.00113904364
0.00101320566
0.000895357428
0.000785382623
0.000683164654
0.000588586669
0.000501531564
0.000421881999
0.000349520407
0.000284329011
0.000226189834
0.000174984711
0.000130595302
9.29031057e-05
6.17894705e-05
3.71356077e-05
1.88226035e-05
6.73143225e-06
7.42968024e-07

shape_id 2
num_samples 1000
0
0
998

shape_id 3
num_samples 5
-0
1
-0
-0.138613861
-0.138613861

shape_id 4
num_samples 5
0
7
14
15
115

shape_id 5
num_samples 4
0.138613861
0
-1
0

shape_id 6
num_samples 4
0
1
8
15

shape_id 7
num_samples 4
0
0.90769371
0.90769371
1

shape_id 8
num_samples 4
0
8
10
11

shape_id 9
num_samples 5
1
0
-0.99
-0.99
0

shape_id 10
num_samples 5
0
7
14
17
24

shape_id 11
num_samples 6
-0
0.99
0.99
-0
-1
-1

shape_id 12
num_samples 6
0
7
10
17
24
37


[SIGNATURE]
# This is the hash of the Pulseq file, calculated right before the [SIGNATURE]
# section was added. It can be reproduced/verified with md5sum if the file
# trimmed to the position right above [SIGNATURE]. The new line character
# preceding [SIGNATURE] BELONGS to the signature (and needs to be sripped away
# for recalculating/verification)
Type md5
Hash f82254d1bd6f1c321eed43629d43d71a
