# Pulseq sequence file
# Created by MATLAB mr toolbox

[VERSION]
major 1
minor 5
revision 1

[DEFINITIONS]
AdcRasterTime 2e-06 
BlockDurationRaster 2e-05 
GradientRasterTime 2e-05 
Name epi 
PeakRF 502.44644 
RadiofrequencyRasterTime 2e-06 
ReadoutOversamplingFactor 2 
RequiredExtensions  
SliceGap 0.0015 
SlicePositions -0.0065 0.0065 0 
SliceThickness 0.005 
TR 0.0194 
TotalDuration 0.1164 

# Format of blocks:
# NUM DUR RF  GX  GY  GZ  ADC  EXT
[BLOCKS]
 1 449   1   0   0   1  0  4
 2 106   2   0   0   2  0  7
 3  25   0   3   0   4  0  9
 4  33   0   5   0   0  0 12
 5  33   0   6   0   0  0 15
 6  33   0   5   0   0  0 16
 7  25   0   0   7   0  0 18
 8  33   0   6   8   0  0 21
 9  33   0   5   9   0  0 23
10  33   0   6   9   0  0 21
11  33   0   5   9   0  0 23
12  33   0   6   9   0  0 21
13  33   0   5   9   0  0 23
14  33   0   6   9   0  0 21
15  33   0   5  10   0  0 23
16   2   0   0   0   0  0 24
17 449   1   0   0   1  0 26
18 106   3   0   0   2  0  7
19  25   0   3   0   4  0  9
20  33   0   5   0   0  0 12
21  33   0   6   0   0  0 15
22  33   0   5   0   0  0 16
23  25   0   0   7   0  0 18
24  33   0   6   8   0  0 21
25  33   0   5   9   0  0 23
26  33   0   6   9   0  0 21
27  33   0   5   9   0  0 23
28  33   0   6   9   0  0 21
29  33   0   5   9   0  0 23
30  33   0   6   9   0  0 21
31  33   0   5  10   0  0 23
32   2   0   0   0   0  0 24
33 449   1   0   0   1  0 26
34 106   4   0   0   2  0  7
35  25   0   3   0   4  0  9
36  33   0   5   0   0  0 12
37  33   0   6   0   0  0 15
38  33   0   5   0   0  0 16
39  25   0   0   7   0  0 18
40  33   0   6   8   0  0 21
41  33   0   5   9   0  0 23
42  33   0   6   9   0  0 21
43  33   0   5   9   0  0 23
44  33   0   6   9   0  0 21
45  33   0   5   9   0  0 23
46  33   0   6   9   0  0 21
47  33   0   5  10   0  0 23
48   2   0   0   0   0  0 24
49 449   1   0   0   1  0 30
50 106   5   0   0   2  0  7
51  25   0   3   0   4  0  9
52  33   0   5   0   0  1 12
53  33   0   6   0   0  1 15
54  33   0   5   0   0  1 16
55  25   0   0  11   0  0 18
56  33   0   6   8   0  1 21
57  33   0   5   9   0  1 23
58  33   0   6   9   0  1 21
59  33   0   5   9   0  1 23
60  33   0   6   9   0  1 21
61  33   0   5   9   0  1 23
62  33   0   6   9   0  1 21
63  33   0   5  10   0  1 23
64   2   0   0   0   0  0 24
65 449   1   0   0   1  0 26
66 106   6   0   0   2  0  7
67  25   0   3   0   4  0  9
68  33   0   5   0   0  1 12
69  33   0   6   0   0  1 15
70  33   0   5   0   0  1 16
71  25   0   0  11   0  0 18
72  33   0   6   8   0  1 21
73  33   0   5   9   0  1 23
74  33   0   6   9   0  1 21
75  33   0   5   9   0  1 23
76  33   0   6   9   0  1 21
77  33   0   5   9   0  1 23
78  33   0   6   9   0  1 21
79  33   0   5  10   0  1 23
80   2   0   0   0   0  0 24
81 449   1   0   0   1  0 26
82 106   7   0   0   2  0  7
83  25   0   3   0   4  0  9
84  33   0   5   0   0  1 12
85  33   0   6   0   0  1 15
86  33   0   5   0   0  1 16
87  25   0   0  11   0  0 18
88  33   0   6   8   0  1 21
89  33   0   5   9   0  1 23
90  33   0   6   9   0  1 21
91  33   0   5   9   0  1 23
92  33   0   6   9   0  1 21
93  33   0   5   9   0  1 23
94  33   0   6   9   0  1 21
95  33   0   5  10   0  1 23
96   2   0   0   0   0  0 24

# Format of RF events:
# id ampl. mag_id phase_id time_shape_id center delay freqPPM phasePPM freq phase use
# ..   Hz      ..       ..            ..     us    us     ppm  rad/MHz   Hz   rad  ..
# Field 'use' is the initial of: 
#   excitation refocusing inversion saturation preparation other undefined
[RF]
1       67.529 1 2 0 4000 0 -3.35 0.0841947 0 0 s
2      502.446 3 4 0 1000 60 0 0 -2600 0 e
3      502.446 3 4 0 1000 60 0 0 2600 0 e
4      502.446 3 4 0 1000 60 0 0 0 0 e
5      502.446 3 4 0 1000 60 0 0 -2600 16.3363 e
6      502.446 3 4 0 1000 60 0 0 2600 -16.3363 e
7      502.446 3 4 0 1000 60 0 0 0 -0 e

# Format of arbitrary gradients:
#   time_shape_id of 0 means default timing (stepping with grad_raster starting at 1/2 of grad_raster)
# id amplitude first last amp_shape_id time_shape_id delay
# ..      Hz/m  Hz/m Hz/m        ..         ..          us
[GRADIENTS]
8     -75757.6            0     -75757.6 5 6 620
9     -75757.6     -75757.6     -75757.6 7 8 0
10     -75757.6     -75757.6            0 9 6 0

# Format of trapezoid gradients:
# id amplitude rise flat fall delay
# ..      Hz/m   us   us   us    us
[TRAP]
 1  1.19048e+06 140  700 140 8000
 2       400000  60 2000  60   0
 3  1.08728e+06 140    0 140 220
 4 -1.14444e+06 140  220 140   0
 5      -507400  60  540  60   0
 6       507400  60  540  60   0
 7            0  20  460  20   0
11      28409.1  20  460  20   0

# Format of ADC events:
# id num dwell delay freqPPM phasePPM freq phase phase_id
# ..  ..    ns    us     ppm  rad/MHz   Hz   rad       ..
[ADC]
1 128 4000 74 0 0 0 0 0

# Format of extension lists:
# id type ref next_id
# next_id of 0 terminates the list
# Extension list is followed by extension specifications
[EXTENSIONS]
1 1 1 0
2 1 2 1
3 1 3 2
4 1 4 3
5 3 1 0
6 1 5 5
7 1 6 6
8 1 7 0
9 1 8 8
10 1 9 0
11 1 10 10
12 1 11 11
13 1 11 0
14 1 12 13
15 1 13 14
16 1 14 11
17 1 15 13
18 1 16 17
19 4 1 0
20 1 12 19
21 1 13 20
22 1 9 19
23 1 10 22
24 4 2 0
25 1 3 0
26 1 4 25
27 1 2 0
28 1 3 27
29 1 4 28
30 1 17 29

# Extension specification for digital output and input triggers:
# id type channel delay (us) duration (us)
extension TRIGGERS 3
1 1 1 0 100

# Extension specification for setting labels:
# id set labelstring
extension LABELSET 1
1 1 ONCE
2 0 SLC
3 1 NOPOS
4 1 NOROT
5 0 NOPOS
6 0 NOROT
7 1 NAV
8 4 LIN
9 1 REV
10 1 SEG
11 0 AVG
12 0 REV
13 0 SEG
14 1 AVG
15 -1 LIN
16 0 NAV
17 0 ONCE

# Extension specification for increasing labels:
# id inc labelstring
extension LABELINC 4
1 1 LIN
2 1 SLC

# Sequence Shapes
[SHAPES]

shape_id 1
num_samples 4000
0.100297787
0.100528698
0.100760025
0.100991768
0.101223928
0.101456505
0.101689499
0.101922911
0.102156741
0.10239099
0.102625658
0.102860745
0.103096253
0.10333218
0.103568529
0.103805298
0.104042489
0.104280103
0.104518138
0.104756597
0.104995479
0.105234784
0.105474514
0.105714668
0.105955246
0.106196251
0.106437681
0.106679537
0.10692182
0.107164529
0.107407666
0.107651231
0.107895224
0.108139646
0.108384497
0.108629777
0.108875487
0.109121627
0.109368198
0.1096152
0.109862633
0.110110498
0.110358796
0.110607526
0.110856689
0.111106286
0.111356317
0.111606781
0.111857681
0.112109015
0.112360786
0.112612991
0.112865634
0.113118712
0.113372228
0.113626182
0.113880573
0.114135402
0.11439067
0.114646378
0.114902524
0.11515911
0.115416137
0.115673604
0.115931512
0.116189862
0.116448653
0.116707886
0.116967562
0.117227681
0.117488243
0.117749249
0.118010699
0.118272594
0.118534933
0.118797718
0.119060948
0.119324624
0.119588746
0.119853315
0.120118332
0.120383796
0.120649707
0.120916068
0.121182876
0.121450134
0.121717841
0.121985998
0.122254605
0.122523662
0.122793171
0.12306313
0.123333541
0.123604405
0.12387572
0.124147489
0.12441971
0.124692385
0.124965514
0.125239097
0.125513134
0.125787626
0.126062574
0.126337977
0.126613837
0.126890152
0.127166925
0.127444154
0.127721841
0.127999986
0.128278589
0.12855765
0.128837171
0.12911715
0.129397589
0.129678488
0.129959848
0.130241667
0.130523948
0.130806691
0.131089894
0.13137356
0.131657689
0.13194228
0.132227334
0.132512851
0.132798832
0.133085278
0.133372187
0.133659562
0.133947402
0.134235707
0.134524478
0.134813714
0.135103418
0.135393588
0.135684225
0.13597533
0.136266903
0.136558944
0.136851453
0.137144431
0.137437878
0.137731794
0.138026181
0.138321037
0.138616364
0.138912161
0.13920843
0.13950517
0.139802382
0.140100066
0.140398222
0.140696851
0.140995952
0.141295527
0.141595576
0.141896099
0.142197096
0.142498567
0.142800513
0.143102935
0.143405832
0.143709205
0.144013054
0.144317379
0.144622181
0.14492746
0.145233217
0.145539451
0.145846163
0.146153353
0.146461022
0.146769169
0.147077796
0.147386902
0.147696488
0.148006554
0.1483171
0.148628127
0.148939635
0.149251623
0.149564094
0.149877046
0.15019048
0.150504397
0.150818796
0.151133678
0.151449043
0.151764892
0.152081225
0.152398041
0.152715342
0.153033127
0.153351398
0.153670153
0.153989394
0.154309121
0.154629333
0.154950032
0.155271217
0.155592889
0.155915048
0.156237695
0.156560829
0.15688445
0.15720856
0.157533158
0.157858245
0.158183821
0.158509886
0.15883644
0.159163484
0.159491018
0.159819042
0.160147556
0.160476561
0.160806057
0.161136045
0.161466523
0.161797493
0.162128955
0.16246091
0.162793356
0.163126296
0.163459728
0.163793653
0.164128072
0.164462984
0.16479839
0.16513429
0.165470685
0.165807574
0.166144957
0.166482836
0.16682121
0.167160079
0.167499444
0.167839305
0.168179662
0.168520516
0.168861865
0.169203712
0.169546056
0.169888897
0.170232235
0.170576071
0.170920405
0.171265237
0.171610567
0.171956396
0.172302723
0.172649549
0.172996875
0.173344699
0.173693024
0.174041848
0.174391172
0.174740995
0.17509132
0.175442145
0.17579347
0.176145297
0.176497624
0.176850453
0.177203783
0.177557615
0.177911949
0.178266785
0.178622123
0.178977963
0.179334306
0.179691152
0.180048501
0.180406352
0.180764707
0.181123566
0.181482928
0.181842794
0.182203164
0.182564039
0.182925417
0.1832873
0.183649688
0.18401258
0.184375977
0.18473988
0.185104288
0.185469201
0.18583462
0.186200545
0.186566975
0.186933912
0.187301355
0.187669304
0.18803776
0.188406722
0.188776191
0.189146167
0.189516651
0.189887641
0.190259139
0.190631144
0.191003657
0.191376678
0.191750207
0.192124243
0.192498788
0.192873841
0.193249403
0.193625473
0.194002052
0.194379139
0.194756736
0.195134841
0.195513456
0.19589258
0.196272213
0.196652356
0.197033008
0.19741417
0.197795842
0.198178024
0.198560716
0.198943918
0.19932763
0.199711853
0.200096586
0.200481829
0.200867584
0.201253849
0.201640624
0.202027911
0.202415709
0.202804017
0.203192837
0.203582168
0.203972011
0.204362365
0.20475323
0.205144607
0.205536496
0.205928896
0.206321808
0.206715232
0.207109168
0.207503616
0.207898577
0.208294049
0.208690033
0.20908653
0.209483539
0.20988106
0.210279094
0.210677641
0.2110767
0.211476271
0.211876355
0.212276952
0.212678062
0.213079684
0.21348182
0.213884468
0.214287629
0.214691303
0.21509549
0.21550019
0.215905403
0.21631113
0.216717369
0.217124122
0.217531387
0.217939166
0.218347458
0.218756264
0.219165582
0.219575414
0.21998576
0.220396618
0.22080799
0.221219875
0.221632274
0.222045186
0.222458611
0.22287255
0.223287002
0.223701967
0.224117446
0.224533438
0.224949944
0.225366963
0.225784495
0.226202541
0.2266211
0.227040172
0.227459757
0.227879856
0.228300468
0.228721593
0.229143232
0.229565383
0.229988048
0.230411226
0.230834917
0.231259121
0.231683838
0.232109068
0.232534811
0.232961067
0.233387836
0.233815118
0.234242912
0.23467122
0.235100039
0.235529372
0.235959217
0.236389575
0.236820445
0.237251828
0.237683723
0.23811613
0.238549049
0.238982481
0.239416425
0.239850881
0.240285848
0.240721328
0.24115732
0.241593823
0.242030838
0.242468364
0.242906402
0.243344951
0.243784012
0.244223584
0.244663667
0.245104261
0.245545366
0.245986982
0.246429109
0.246871746
0.247314894
0.247758553
0.248202721
0.2486474
0.249092589
0.249538288
0.249984497
0.250431216
0.250878445
0.251326183
0.25177443
0.252223187
0.252672453
0.253122228
0.253572512
0.254023305
0.254474606
0.254926416
0.255378734
0.255831561
0.256284896
0.256738738
0.257193089
0.257647947
0.258103313
0.258559186
0.259015566
0.259472453
0.259929847
0.260387748
0.260846156
0.26130507
0.26176449
0.262224416
0.262684849
0.263145786
0.26360723
0.264069179
0.264531633
0.264994592
0.265458056
0.265922025
0.266386498
0.266851475
0.267316957
0.267782942
0.268249431
0.268716424
0.26918392
0.269651919
0.270120421
0.270589426
0.271058933
0.271528943
0.271999454
0.272470468
0.272941983
0.273413999
0.273886517
0.274359536
0.274833056
0.275307076
0.275781596
0.276256617
0.276732137
0.277208157
0.277684676
0.278161695
0.278639212
0.279117228
0.279595743
0.280074755
0.280554266
0.281034274
0.281514779
0.281995782
0.282477282
0.282959278
0.283441771
0.28392476
0.284408244
0.284892224
0.2853767
0.28586167
0.286347136
0.286833095
0.287319549
0.287806497
0.288293939
0.288781873
0.289270301
0.289759222
0.290248635
0.29073854
0.291228938
0.291719826
0.292211206
0.292703077
0.293195439
0.293688291
0.294181633
0.294675465
0.295169786
0.295664596
0.296159895
0.296655683
0.297151959
0.297648722
0.298145973
0.298643711
0.299141936
0.299640648
0.300139845
0.300639529
0.301139698
0.301640352
0.30214149
0.302643113
0.303145221
0.303647812
0.304150886
0.304654443
0.305158483
0.305663006
0.30616801
0.306673496
0.307179463
0.30768591
0.308192839
0.308700247
0.309208135
0.309716502
0.310225348
0.310734673
0.311244476
0.311754757
0.312265515
0.31277675
0.313288461
0.313800649
0.314313313
0.314826452
0.315340066
0.315854154
0.316368717
0.316883753
0.317399263
0.317915245
0.318431701
0.318948628
0.319466027
0.319983897
0.320502238
0.321021049
0.32154033
0.322060081
0.3225803
0.323100989
0.323622145
0.324143769
0.324665861
0.325188419
0.325711444
0.326234934
0.326758891
0.327283312
0.327808197
0.328333547
0.32885936
0.329385637
0.329912376
0.330439578
0.330967241
0.331495365
0.33202395
0.332552996
0.333082501
0.333612465
0.334142889
0.334673771
0.33520511
0.335736907
0.336269161
0.336801871
0.337335037
0.337868658
0.338402734
0.338937265
0.339472249
0.340007687
0.340543577
0.34107992
0.341616714
0.342153959
0.342691656
0.343229802
0.343768398
0.344307443
0.344846936
0.345386878
0.345927267
0.346468103
0.347009385
0.347551113
0.348093287
0.348635905
0.349178967
0.349722473
0.350266422
0.350810813
0.351355647
0.351900921
0.352446637
0.352992792
0.353539388
0.354086422
0.354633895
0.355181805
0.355730153
0.356278938
0.356828159
0.357377815
0.357927906
0.358478432
0.359029391
0.359580784
0.360132609
0.360684866
0.361237554
0.361790673
0.362344222
0.3628982
0.363452608
0.364007443
0.364562706
0.365118397
0.365674513
0.366231055
0.366788023
0.367345414
0.36790323
0.368461469
0.36902013
0.369579213
0.370138718
0.370698643
0.371258988
0.371819752
0.372380935
0.372942536
0.373504554
0.374066988
0.374629839
0.375193105
0.375756786
0.37632088
0.376885388
0.377450309
0.378015641
0.378581384
0.379147538
0.379714102
0.380281075
0.380848457
0.381416246
0.381984443
0.382553045
0.383122054
0.383691467
0.384261285
0.384831506
0.38540213
0.385973156
0.386544583
0.387116411
0.387688639
0.388261266
0.388834292
0.389407716
0.389981536
0.390555753
0.391130365
0.391705372
0.392280773
0.392856568
0.393432755
0.394009333
0.394586303
0.395163663
0.395741413
0.396319551
0.396898078
0.397476992
0.398056292
0.398635978
0.399216049
0.399796504
0.400377342
0.400958563
0.401540166
0.40212215
0.402704514
0.403287258
0.40387038
0.40445388
0.405037757
0.405622011
0.40620664
0.406791644
0.407377021
0.407962772
0.408548894
0.409135389
0.409722253
0.410309488
0.410897092
0.411485063
0.412073402
0.412662108
0.413251179
0.413840615
0.414430415
0.415020578
0.415611104
0.416201991
0.416793238
0.417384845
0.417976811
0.418569136
0.419161817
0.419754855
0.420348248
0.420941996
0.421536098
0.422130552
0.422725359
0.423320516
0.423916024
0.424511881
0.425108087
0.42570464
0.426301541
0.426898787
0.427496378
0.428094313
0.428692591
0.429291211
0.429890173
0.430489475
0.431089117
0.431689097
0.432289416
0.432890071
0.433491062
0.434092388
0.434694048
0.435296041
0.435898366
0.436501023
0.43710401
0.437707327
0.438310972
0.438914944
0.439519243
0.440123868
0.440728818
0.441334092
0.441939688
0.442545606
0.443151845
0.443758404
0.444365283
0.444972479
0.445579992
0.446187822
0.446795967
0.447404425
0.448013198
0.448622282
0.449231678
0.449841384
0.450451399
0.451061722
0.451672353
0.452283291
0.452894533
0.45350608
0.454117931
0.454730083
0.455342537
0.455955292
0.456568346
0.457181698
0.457795347
0.458409293
0.459023534
0.45963807
0.460252899
0.46086802
0.461483432
0.462099134
0.462715126
0.463331405
0.463947972
0.464564825
0.465181962
0.465799384
0.466417089
0.467035075
0.467653343
0.46827189
0.468890716
0.46950982
0.4701292
0.470748855
0.471368786
0.471988989
0.472609465
0.473230213
0.47385123
0.474472517
0.475094071
0.475715893
0.476337981
0.476960333
0.477582949
0.478205828
0.478828968
0.479452369
0.480076029
0.480699947
0.481324122
0.481948554
0.48257324
0.483198181
0.483823374
0.484448818
0.485074513
0.485700458
0.486326651
0.486953091
0.487579777
0.488206707
0.488833882
0.489461299
0.490088958
0.490716857
0.491344995
0.491973372
0.492601985
0.493230834
0.493859918
0.494489235
0.495118785
0.495748566
0.496378577
0.497008816
0.497639284
0.498269978
0.498900897
0.499532041
0.500163408
0.500794997
0.501426806
0.502058835
0.502691082
0.503323546
0.503956227
0.504589122
0.505222231
0.505855552
0.506489085
0.507122828
0.507756779
0.508390938
0.509025304
0.509659874
0.510294649
0.510929627
0.511564806
0.512200186
0.512835765
0.513471542
0.514107516
0.514743685
0.515380049
0.516016605
0.516653354
0.517290293
0.517927422
0.518564739
0.519202242
0.519839932
0.520477806
0.521115863
0.521754102
0.522392522
0.523031121
0.523669899
0.524308854
0.524947984
0.525587289
0.526226767
0.526866417
0.527506237
0.528146227
0.528786386
0.529426711
0.530067201
0.530707857
0.531348675
0.531989655
0.532630795
0.533272095
0.533913552
0.534555166
0.535196936
0.53583886
0.536480936
0.537123164
0.537765542
0.538408069
0.539050743
0.539693564
0.54033653
0.540979639
0.541622891
0.542266284
0.542909817
0.543553488
0.544197296
0.54484124
0.545485318
0.54612953
0.546773873
0.547418347
0.548062949
0.54870768
0.549352537
0.54999752
0.550642626
0.551287855
0.551933204
0.552578674
0.553224262
0.553869967
0.554515788
0.555161723
0.555807771
0.556453931
0.557100201
0.557746581
0.558393067
0.55903966
0.559686358
0.56033316
0.560980063
0.561627068
0.562274171
0.562921373
0.563568671
0.564216065
0.564863553
0.565511133
0.566158804
0.566806565
0.567454414
0.56810235
0.568750371
0.569398477
0.570046666
0.570694936
0.571343286
0.571991714
0.57264022
0.573288801
0.573937457
0.574586186
0.575234986
0.575883856
0.576532795
0.577181801
0.577830874
0.57848001
0.57912921
0.579778471
0.580427792
0.581077173
0.58172661
0.582376103
0.583025651
0.583675252
0.584324904
0.584974607
0.585624358
0.586274157
0.586924001
0.58757389
0.588223821
0.588873794
0.589523807
0.590173859
0.590823948
0.591474072
0.592124231
0.592774423
0.593424645
0.594074898
0.594725179
0.595375487
0.59602582
0.596676177
0.597326557
0.597976957
0.598627378
0.599277816
0.599928271
0.600578741
0.601229224
0.60187972
0.602530227
0.603180742
0.603831266
0.604481795
0.605132329
0.605782867
0.606433406
0.607083945
0.607734483
0.608385019
0.60903555
0.609686075
0.610336593
0.610987102
0.611637601
0.612288088
0.612938562
0.613589021
0.614239463
0.614889888
0.615540294
0.616190678
0.61684104
0.617491379
0.618141691
0.618791977
0.619442234
0.620092462
0.620742657
0.62139282
0.622042948
0.62269304
0.623343094
0.623993109
0.624643084
0.625293016
0.625942904
0.626592747
0.627242542
0.62789229
0.628541987
0.629191633
0.629841226
0.630490764
0.631140246
0.63178967
0.632439035
0.633088339
0.633737581
0.634386758
0.63503587
0.635684915
0.636333891
0.636982797
0.637631632
0.638280393
0.638929079
0.639577688
0.640226219
0.640874671
0.641523042
0.64217133
0.642819533
0.64346765
0.64411568
0.644763621
0.645411471
0.646059229
0.646706893
0.647354462
0.648001934
0.648649307
0.649296579
0.64994375
0.650590818
0.651237781
0.651884637
0.652531385
0.653178023
0.65382455
0.654470964
0.655117263
0.655763446
0.656409512
0.657055458
0.657701283
0.658346986
0.658992564
0.659638017
0.660283342
0.660928538
0.661573604
0.662218537
0.662863337
0.663508001
0.664152528
0.664796916
0.665441165
0.666085271
0.666729233
0.667373051
0.668016722
0.668660244
0.669303616
0.669946837
0.670589904
0.671232816
0.671875572
0.67251817
0.673160608
0.673802885
0.674444998
0.675086947
0.675728729
0.676370344
0.677011788
0.677653062
0.678294163
0.678935089
0.679575839
0.680216411
0.680856804
0.681497016
0.682137045
0.68277689
0.683416548
0.684056019
0.684695301
0.685334392
0.68597329
0.686611994
0.687250502
0.687888812
0.688526923
0.689164834
0.689802541
0.690440045
0.691077343
0.691714433
0.692351314
0.692987984
0.693624442
0.694260686
0.694896714
0.695532525
0.696168116
0.696803487
0.697438635
0.698073559
0.698708257
0.699342728
0.69997697
0.700610981
0.701244759
0.701878304
0.702511613
0.703144684
0.703777516
0.704410107
0.705042456
0.705674561
0.70630642
0.706938031
0.707569394
0.708200505
0.708831364
0.709461969
0.710092318
0.710722409
0.711352241
0.711981812
0.712611121
0.713240165
0.713868944
0.714497454
0.715125696
0.715753666
0.716381364
0.717008788
0.717635935
0.718262805
0.718889395
0.719515704
0.720141731
0.720767473
0.721392928
0.722018096
0.722642975
0.723267562
0.723891856
0.724515856
0.725139559
0.725762964
0.72638607
0.727008874
0.727631376
0.728253572
0.728875462
0.729497044
0.730118316
0.730739277
0.731359924
0.731980256
0.732600272
0.73321997
0.733839347
0.734458403
0.735077135
0.735695543
0.736313623
0.736931375
0.737548797
0.738165887
0.738782643
0.739399064
0.740015149
0.740630894
0.741246299
0.741861362
0.742476082
0.743090455
0.743704482
0.74431816
0.744931487
0.745544462
0.746157083
0.746769348
0.747381256
0.747992805
0.748603993
0.749214818
0.74982528
0.750435375
0.751045103
0.751654462
0.752263449
0.752872064
0.753480305
0.754088169
0.754695656
0.755302763
0.755909489
0.756515832
0.757121791
0.757727363
0.758332547
0.758937341
0.759541744
0.760145754
0.760749369
0.761352588
0.761955408
0.762557828
0.763159847
0.763761462
0.764362673
0.764963476
0.765563871
0.766163856
0.766763429
0.767362589
0.767961333
0.768559661
0.769157569
0.769755058
0.770352124
0.770948766
0.771544983
0.772140773
0.772736134
0.773331065
0.773925563
0.774519627
0.775113256
0.775706447
0.776299199
0.77689151
0.777483379
0.778074803
0.778665782
0.779256313
0.779846395
0.780436026
0.781025205
0.781613928
0.782202196
0.782790006
0.783377357
0.783964247
0.784550673
0.785136635
0.785722131
0.786307159
0.786891717
0.787475804
0.788059418
0.788642558
0.789225221
0.789807405
0.79038911
0.790970334
0.791551074
0.792131329
0.792711098
0.793290379
0.79386917
0.794447469
0.795025274
0.795602585
0.796179399
0.796755715
0.79733153
0.797906844
0.798481655
0.79905596
0.799629758
0.800203048
0.800775828
0.801348096
0.80191985
0.80249109
0.803061812
0.803632015
0.804201699
0.80477086
0.805339498
0.80590761
0.806475196
0.807042253
0.807608779
0.808174774
0.808740234
0.80930516
0.809869548
0.810433398
0.810996707
0.811559474
0.812121698
0.812683376
0.813244507
0.813805089
0.814365121
0.8149246
0.815483526
0.816041897
0.81659971
0.817156965
0.817713659
0.818269792
0.81882536
0.819380363
0.819934799
0.820488667
0.821041964
0.821594689
0.82214684
0.822698416
0.823249415
0.823799835
0.824349675
0.824898933
0.825447607
0.825995696
0.826543199
0.827090112
0.827636436
0.828182167
0.828727305
0.829271848
0.829815794
0.830359142
0.830901889
0.831444035
0.831985578
0.832526515
0.833066846
0.833606569
0.834145682
0.834684183
0.835222071
0.835759344
0.836296
0.836832039
0.837367458
0.837902255
0.83843643
0.83896998
0.839502904
0.8400352
0.840566866
0.841097902
0.841628304
0.842158073
0.842687205
0.8432157
0.843743556
0.844270771
0.844797343
0.845323271
0.845848554
0.84637319
0.846897177
0.847420513
0.847943197
0.848465228
0.848986603
0.849507321
0.850027381
0.850546781
0.851065519
0.851583594
0.852101004
0.852617747
0.853133823
0.853649229
0.854163963
0.854678025
0.855191412
0.855704124
0.856216157
0.856727512
0.857238186
0.857748177
0.858257485
0.858766107
0.859274042
0.859781288
0.860287844
0.860793709
0.86129888
0.861803356
0.862307135
0.862810217
0.863312598
0.863814279
0.864315257
0.86481553
0.865315098
0.865813958
0.86631211
0.86680955
0.867306279
0.867802294
0.868297593
0.868792176
0.869286041
0.869779186
0.870271609
0.87076331
0.871254286
0.871744536
0.872234058
0.872722852
0.873210915
0.873698245
0.874184842
0.874670704
0.875155829
0.875640216
0.876123863
0.876606769
0.877088932
0.877570351
0.878051023
0.878530949
0.879010125
0.879488551
0.879966226
0.880443146
0.880919312
0.881394722
0.881869373
0.882343266
0.882816397
0.883288766
0.88376037
0.88423121
0.884701283
0.885170587
0.885639121
0.886106884
0.886573874
0.88704009
0.88750553
0.887970193
0.888434077
0.88889718
0.889359502
0.889821041
0.890281796
0.890741764
0.891200944
0.891659336
0.892116937
0.892573746
0.893029761
0.893484982
0.893939406
0.894393033
0.89484586
0.895297887
0.895749112
0.896199533
0.896649149
0.897097959
0.89754596
0.897993153
0.898439534
0.898885104
0.89932986
0.899773801
0.900216925
0.900659232
0.901100719
0.901541386
0.90198123
0.902420251
0.902858447
0.903295817
0.903732359
0.904168072
0.904602954
0.905037004
0.905470221
0.905902603
0.906334149
0.906764857
0.907194726
0.907623755
0.908051943
0.908479287
0.908905787
0.909331441
0.909756247
0.910180206
0.910603314
0.911025571
0.911446975
0.911867525
0.912287219
0.912706057
0.913124037
0.913541157
0.913957416
0.914372813
0.914787347
0.915201015
0.915613818
0.916025753
0.916436818
0.916847014
0.917256338
0.917664789
0.918072366
0.918479067
0.918884892
0.919289838
0.919693904
0.92009709
0.920499394
0.920900814
0.921301349
0.921700998
0.92209976
0.922497633
0.922894616
0.923290708
0.923685907
0.924080212
0.924473623
0.924866136
0.925257752
0.925648469
0.926038286
0.926427201
0.926815213
0.927202321
0.927588523
0.927973819
0.928358207
0.928741686
0.929124255
0.929505911
0.929886655
0.930266485
0.930645399
0.931023396
0.931400476
0.931776636
0.932151876
0.932526194
0.93289959
0.933272061
0.933643607
0.934014226
0.934383918
0.93475268
0.935120513
0.935487414
0.935853382
0.936218416
0.936582516
0.936945679
0.937307905
0.937669192
0.938029539
0.938388946
0.93874741
0.93910493
0.939461506
0.939817137
0.94017182
0.940525555
0.940878341
0.941230177
0.941581061
0.941930992
0.942279969
0.942627991
0.942975057
0.943321166
0.943666316
0.944010506
0.944353736
0.944696003
0.945037307
0.945377648
0.945717022
0.946055431
0.946392871
0.946729343
0.947064845
0.947399376
0.947732935
0.948065521
0.948397133
0.948727769
0.949057428
0.94938611
0.949713814
0.950040537
0.95036628
0.95069104
0.951014818
0.951337611
0.95165942
0.951980242
0.952300076
0.952618922
0.952936779
0.953253645
0.95356952
0.953884402
0.95419829
0.954511183
0.954823081
0.955133981
0.955443884
0.955752788
0.956060692
0.956367595
0.956673496
0.956978394
0.957282288
0.957585176
0.957887059
0.958187935
0.958487802
0.95878666
0.959084508
0.959381345
0.95967717
0.959971982
0.96026578
0.960558562
0.960850329
0.961141078
0.96143081
0.961719522
0.962007215
0.962293886
0.962579536
0.962864162
0.963147765
0.963430343
0.963711896
0.963992421
0.964271919
0.964550389
0.964827829
0.965104239
0.965379617
0.965653963
0.965927275
0.966199554
0.966470797
0.966741005
0.967010176
0.967278308
0.967545402
0.967811457
0.968076471
0.968340444
0.968603374
0.968865261
0.969126104
0.969385903
0.969644655
0.969902361
0.970159019
0.970414628
0.970669189
0.970922699
0.971175158
0.971426566
0.97167692
0.971926221
0.972174468
0.97242166
0.972667795
0.972912873
0.973156894
0.973399856
0.973641759
0.973882601
0.974122383
0.974361102
0.974598759
0.974835353
0.975070882
0.975305346
0.975538744
0.975771076
0.97600234
0.976232536
0.976461663
0.97668972
0.976916706
0.977142622
0.977367465
0.977591235
0.977813932
0.978035554
0.978256101
0.978475572
0.978693967
0.978911284
0.979127523
0.979342683
0.979556764
0.979769764
0.979981684
0.980192521
0.980402276
0.980610948
0.980818536
0.98102504
0.981230458
0.98143479
0.981638035
0.981840193
0.982041263
0.982241244
0.982440136
0.982637937
0.982834648
0.983030267
0.983224794
0.983418228
0.983610569
0.983801816
0.983991968
0.984181024
0.984368984
0.984555848
0.984741614
0.984926283
0.985109852
0.985292323
0.985473693
0.985653963
0.985833132
0.9860112
0.986188164
0.986364026
0.986538785
0.986712439
0.986884989
0.987056433
0.987226771
0.987396003
0.987564128
0.987731145
0.987897054
0.988061854
0.988225545
0.988388126
0.988549596
0.988709956
0.988869204
0.989027339
0.989184362
0.989340272
0.989495069
0.98964875
0.989801318
0.98995277
0.990103106
0.990252325
0.990400428
0.990547414
0.990693281
0.99083803
0.990981661
0.991124172
0.991265563
0.991405834
0.991544984
0.991683013
0.99181992
0.991955705
0.992090367
0.992223906
0.992356321
0.992487613
0.992617779
0.992746821
0.992874738
0.993001528
0.993127192
0.99325173
0.99337514
0.993497423
0.993618578
0.993738604
0.993857502
0.99397527
0.994091909
0.994207418
0.994321796
0.994435044
0.99454716
0.994658145
0.994767997
0.994876718
0.994984305
0.99509076
0.995196081
0.995300268
0.995403321
0.99550524
0.995606023
0.995705672
0.995804185
0.995901561
0.995997802
0.996092906
0.996186873
0.996279703
0.996371395
0.99646195
0.996551366
0.996639644
0.996726783
0.996812783
0.996897643
0.996981364
0.997063945
0.997145385
0.997225685
0.997304845
0.997382863
0.99745974
0.997535475
0.997610068
0.997683519
0.997755828
0.997826994
0.997897017
0.997965897
0.998033634
0.998100227
0.998165676
0.998229982
0.998293143
0.998355159
0.998416031
0.998475758
0.998534339
0.998591776
0.998648067
0.998703212
0.998757211
0.998810064
0.998861771
0.998912331
0.998961745
0.999010012
0.999057132
0.999103105
0.999147931
0.999191609
0.99923414
0.999275523
0.999315757
0.999354844
0.999392783
0.999429574
0.999465216
0.999499709
0.999533054
0.999565251
0.999596298
0.999626196
0.999654945
0.999682545
0.999708996
0.999734297
0.999758449
0.999781451
0.999803304
0.999824007
0.99984356
0.999861964
0.999879217
0.999895321
0.999910274
0.999924078
0.999936731
0.999948234
0.999958587
0.99996779
0.999975842
0.999982744
0.999988496
0.999993098
0.999996549
0.99999885
1
1
0.99999885
0.999996549
0.999993098
0.999988496
0.999982744
0.999975842
0.99996779
0.999958587
0.999948234
0.999936731
0.999924078
0.999910274
0.999895321
0.999879217
0.999861964
0.99984356
0.999824007
0.999803304
0.999781451
0.999758449
0.999734297
0.999708996
0.999682545
0.999654945
0.999626196
0.999596298
0.999565251
0.999533054
0.999499709
0.999465216
0.999429574
0.999392783
0.999354844
