# Pulseq sequence file
# Created by MATLAB mr toolbox

[VERSION]
major 1
minor 5
revision 1

[DEFINITIONS]
AdcRasterTime 2e-06 
BlockDurationRaster 2e-05 
GradientRasterTime 2e-05 
PeakRF 658.301437 
RadiofrequencyRasterTime 2e-06 
TR 0.20276 
TotalDuration 0.40552 

# Format of blocks:
# NUM DUR RF  GX  GY  GZ  ADC  EXT
[BLOCKS]
  1  13   0   0   0   1  0  1
  2 131   1   0   0   2  0  0
  3 156   0   4   0   3  0  0
  4 156   2   0   0   5  0  0
  5  93   0   7   8   6  0  0
  6 257   0   9   0   0  0  0
  7  93   0  11  12  10  0  0
  8 156   2   0   0   5  0  0
  9  93   0   7   8   6  0  0
 10 257   0   9   0   0  0  0
 11  93   0  11  12  10  0  0
 12 156   2   0   0   5  0  0
 13  93   0   7   8   6  0  0
 14 257   0   9   0   0  0  0
 15  93   0  11  12  10  0  0
 16 156   2   0   0   5  0  0
 17  93   0   7   8   6  0  0
 18 257   0   9   0   0  0  0
 19  93   0  11  12  10  0  0
 20 156   2   0   0   5  0  0
 21  93   0   7   8   6  0  0
 22 257   0   9   0   0  0  0
 23  93   0  11  12  10  0  0
 24 156   2   0   0   5  0  0
 25  93   0   7   8   6  0  0
 26 257   0   9   0   0  0  0
 27  93   0  11  12  10  0  0
 28 156   2   0   0   5  0  0
 29  93   0   7   8   6  0  0
 30 257   0   9   0   0  0  0
 31  93   0  11  12  10  0  0
 32 156   2   0   0   5  0  0
 33  93   0   7   8   6  0  0
 34 257   0   9   0   0  0  0
 35  93   0  11  12  10  0  0
 36 156   2   0   0   5  0  0
 37  93   0   7   8   6  0  0
 38 257   0   9   0   0  0  0
 39  93   0  11  12  10  0  0
 40 156   2   0   0   5  0  0
 41  93   0   7   8   6  0  0
 42 257   0   9   0   0  0  0
 43  93   0  11  12  10  0  0
 44 156   2   0   0   5  0  0
 45  93   0   7   8   6  0  0
 46 257   0   9   0   0  0  0
 47  93   0  11  12  10  0  0
 48 156   2   0   0   5  0  0
 49  93   0   7   8   6  0  0
 50 257   0   9   0   0  0  0
 51  93   0  11  12  10  0  0
 52 156   2   0   0   5  0  0
 53  93   0   7   8   6  0  0
 54 257   0   9   0   0  0  0
 55  93   0  11  12  10  0  0
 56 156   2   0   0   5  0  0
 57  93   0   7   8   6  0  0
 58 257   0   9   0   0  0  0
 59  93   0  11  12  10  0  0
 60 156   2   0   0   5  0  0
 61  93   0   7   8   6  0  0
 62 257   0   9   0   0  0  0
 63  93   0  11  12  10  0  0
 64 156   2   0   0   5  0  0
 65  93   0   7   8   6  0  0
 66 257   0   9   0   0  0  0
 67  93   0  11  12  10  0  0
 68 156   0   0   0   5  0  0
 69  93   0   0   0   6  0  0
 70   5   0   0   0   0  0  0
 71  13   0   0   0   1  0  2
 72 131   1   0   0   2  0  0
 73 156   0   4   0   3  0  0
 74 156   2   0   0   5  0  0
 75  93   0   7  13   6  0  0
 76 257   0   9   0   0  1  0
 77  93   0  11  14  10  0  0
 78 156   2   0   0   5  0  0
 79  93   0   7  15   6  0  0
 80 257   0   9   0   0  1  0
 81  93   0  11  16  10  0  0
 82 156   2   0   0   5  0  0
 83  93   0   7  17   6  0  0
 84 257   0   9   0   0  1  0
 85  93   0  11  18  10  0  0
 86 156   2   0   0   5  0  0
 87  93   0   7  19   6  0  0
 88 257   0   9   0   0  1  0
 89  93   0  11  20  10  0  0
 90 156   2   0   0   5  0  0
 91  93   0   7  21   6  0  0
 92 257   0   9   0   0  1  0
 93  93   0  11  22  10  0  0
 94 156   2   0   0   5  0  0
 95  93   0   7  23   6  0  0
 96 257   0   9   0   0  1  0
 97  93   0  11  24  10  0  0
 98 156   2   0   0   5  0  0
 99  93   0   7  25   6  0  0
100 257   0   9   0   0  1  0
101  93   0  11  26  10  0  0
102 156   2   0   0   5  0  0
103  93   0   7   8   6  0  0
104 257   0   9   0   0  1  0
105  93   0  11  12  10  0  0
106 156   2   0   0   5  0  0
107  93   0   7  26   6  0  0
108 257   0   9   0   0  1  0
109  93   0  11  25  10  0  0
110 156   2   0   0   5  0  0
111  93   0   7  24   6  0  0
112 257   0   9   0   0  1  0
113  93   0  11  23  10  0  0
114 156   2   0   0   5  0  0
115  93   0   7  22   6  0  0
116 257   0   9   0   0  1  0
117  93   0  11  21  10  0  0
118 156   2   0   0   5  0  0
119  93   0   7  20   6  0  0
120 257   0   9   0   0  1  0
121  93   0  11  19  10  0  0
122 156   2   0   0   5  0  0
123  93   0   7  18   6  0  0
124 257   0   9   0   0  1  0
125  93   0  11  17  10  0  0
126 156   2   0   0   5  0  0
127  93   0   7  16   6  0  0
128 257   0   9   0   0  1  0
129  93   0  11  15  10  0  0
130 156   2   0   0   5  0  0
131  93   0   7  14   6  0  0
132 257   0   9   0   0  1  0
133  93   0  11  13  10  0  0
134 156   2   0   0   5  0  0
135  93   0   7  27   6  0  0
136 257   0   9   0   0  1  0
137  93   0  11  28  10  0  0
138 156   0   0   0   5  0  0
139  93   0   0   0   6  0  0
140   5   0   0   0   0  0  0

# Format of RF events:
# id ampl. mag_id phase_id time_shape_id center delay freqPPM phasePPM freq phase use
# ..   Hz      ..       ..            ..     us    us     ppm  rad/MHz   Hz   rad  ..
# Field 'use' is the initial of: 
#   excitation refocusing inversion saturation preparation other undefined
[RF]
1       394.98 5 6 0 1250 100 0 0 0 1.5708 e
2      658.301 10 11 0 1500 100 0 0 0 0 r

# Format of arbitrary gradients:
#   time_shape_id of 0 means default timing (stepping with grad_raster starting at 1/2 of grad_raster)
# id amplitude first last amp_shape_id time_shape_id delay
# ..      Hz/m  Hz/m Hz/m        ..         ..          us
[GRADIENTS]
1       320000            0       320000 1 2 0
2       320000       320000       320000 3 4 0
3       320000       320000       320000 7 8 0
5       320000       320000       320000 3 9 0
6       432000       320000            0 12 13 0
7       656615            0       194553 14 13 0
9       194553       194553       194553 3 15 0
10       432000            0       320000 16 13 0
11       656615       194553            0 17 13 0

# Format of trapezoid gradients:
# id amplitude rise flat fall delay
# ..      Hz/m   us   us   us    us
[TRAP]
 4       551005 260 2600 260   0
 8            0 260 1340 260   0
12           -0 260 1340 260   0
13     -17089.8 260 1340 260   0
14      17089.8 260 1340 260   0
15     -14648.4 260 1340 260   0
16      14648.4 260 1340 260   0
17       -12207 260 1340 260   0
18        12207 260 1340 260   0
19     -9765.62 260 1340 260   0
20      9765.62 260 1340 260   0
21     -7324.22 260 1340 260   0
22      7324.22 260 1340 260   0
23     -4882.81 260 1340 260   0
24      4882.81 260 1340 260   0
25     -2441.41 260 1340 260   0
26      2441.41 260 1340 260   0
27     -19531.2 260 1340 260   0
28      19531.2 260 1340 260   0

# Format of ADC events:
# id num dwell delay freqPPM phasePPM freq phase phase_id
# ..  ..    ns    us     ppm  rad/MHz   Hz   rad       ..
[ADC]
1 256 20000 10 0 0 0 0 0

# Format of extension lists:
# id type ref next_id
# next_id of 0 terminates the list
# Extension list is followed by extension specifications
[EXTENSIONS]
1 1 1 0
2 1 2 0

# Extension specification for setting labels:
# id set labelstring
extension LABELSET 1
1 1 ONCE
2 0 ONCE

# Sequence Shapes
[SHAPES]

shape_id 1
num_samples 2
0
1

shape_id 2
num_samples 2
0
13

shape_id 3
num_samples 2
1
1

shape_id 4
num_samples 2
0
131

shape_id 5
num_samples 1250
1.26432215e-09
3.41901524e-08
1.58530003e-07
4.35656719e-07
9.27280928e-07
1.69543061e-06
2.80243049e-06
4.31088127e-06
6.28363866e-06
8.78379229e-06
1.18746444e-05
1.56196886e-05
2.0082588e-05
2.53271536e-05
3.14173227e-05
3.84171366e-05
4.63907184e-05
5.5402251e-05
6.55159549e-05
7.67960651e-05
8.9306809e-05
0.000103112384
0.000118276933
0.000134864524
0.000152939125
0.000172564582
0.000193804597
0.000216722701
0.000241382233
0.00026784632
0.000296177847
0.000326439436
0.000358693427
0.000393001848
0.000429426393
0.000468028401
0.00050886883
0.000552008235
0.00059750674
0.000645424021
0.000695819275
0.000748751203
0.000804277982
0.000862457241
0.000923346039
0.000987000842
0.0010534775
0.00112283121
0.00119511652
0.00127038728
0.00134869663
0.00143009698
0.00151463996
0.00160237644
0.00169335648
0.0017876293
0.00188524328
0.00198624591
0.0020906838
0.00219860262
0.00231004711
0.00242506105
0.0025436872
0.00266596734
0.00279194221
0.00292165147
0.00305513373
0.0031924265
0.00333356614
0.00347858789
0.00362752582
0.00378041282
0.00393728057
0.0040981595
0.00426307883
0.00443206647
0.00460514908
0.00478235197
0.00496369916
0.00514921328
0.00533891562
0.00553282608
0.00573096313
0.00593334383
0.00613998379
0.00635089717
0.00656609661
0.0067855933
0.00700939688
0.00723751545
0.00746995557
0.00770672224
0.00794781886
0.00819324723
0.00844300753
0.0086970983
0.00895551645
0.0092182572
0.00948531411
0.00975667903
0.0100323421
0.0103122918
0.0105965147
0.0108849959
0.0111777184
0.0114746637
0.0117758114
0.0120811393
0.0123906234
0.0127042378
0.0130219549
0.0133437452
0.0136695774
0.0139994181
0.0143332323
0.014670983
0.0150126313
0.0153581364
0.0157074557
0.0160605444
0.0164173561
0.0167778423
0.0171419525
0.0175096345
0.0178808338
0.0182554943
0.0186335577
0.0190149638
0.0193996505
0.0197875536
0.0201786069
0.0205727424
0.0209698901
0.0213699777
0.0217729314
0.022178675
0.0225871305
0.0229982179
0.0234118552
0.0238279583
0.0242464413
0.0246672162
0.0250901931
0.0255152799
0.0259423828
0.0263714058
0.0268022511
0.0272348188
0.0276690071
0.0281047122
0.0285418284
0.028980248
0.0294198613
0.0298605567
0.0303022209
0.0307447382
0.0311879915
0.0316318613
0.0320762267
0.0325209645
0.0329659498
0.0334110558
0.0338561538
0.0343011135
0.0347458023
0.0351900861
0.0356338291
0.0360768933
0.0365191392
0.0369604255
0.037400609
0.037839545
0.0382770868
0.0387130861
0.039147393
0.0395798557
0.040010321
0.0404386338
0.0408646375
0.0412881739
0.0417090832
0.0421272038
0.0425423729
0.042954426
0.043363197
0.0437685184
0.0441702213
0.0445681351
0.0449620879
0.0453519066
0.0457374163
0.0461184412
0.0464948036
0.046866325
0.0472328253
0.0475941233
0.0479500365
0.048300381
0.0486449719
0.0489836233
0.0493161477
0.0496423568
0.0499620613
0.0502750705
0.0505811929
0.0508802361
0.0511720063
0.0514563093
0.0517329495
0.0520017307
0.0522624557
0.0525149267
0.0527589447
0.0529943104
0.0532208233
0.0534382825
0.0536464865
0.0538452327
0.0540343185
0.0542135402
0.0543826939
0.0545415751
0.0546899786
0.0548276991
0.0549545307
0.0550702672
0.0551747019
0.0552676281
0.0553488384
0.0554181256
0.055475282
0.0555200998
0.0555523713
0.0555718883
0.0555784429
0.055571827
0.0555518326
0.0555182515
0.0554708761
0.0554094983
0.0553339108
0.055243906
0.0551392767
0.0550198161
0.0548853176
0.054735575
0.0545703823
0.0543895343
0.054192826
0.0539800529
0.0537510111
0.0535054974
0.0532433091
0.0529642441
0.0526681011
0.0523546795
0.0520237796
0.0516752023
0.0513087495
0.050924224
0.0505214294
0.0501001705
0.0496602529
0.0492014834
0.0487236698
0.0482266211
0.0477101474
0.04717406
0.0466181715
0.0460422959
0.0454462483
0.0448298452
0.0441929048
0.0435352464
0.0428566908
0.0421570606
0.0414361798
0.0406938738
0.03992997
0.0391442972
0.0383366861
0.0375069691
0.0366549802
0.0357805556
0.034883533
0.0339637522
0.033021055
0.0320552849
0.0310662878
0.0300539113
0.0290180054
0.0279584219
0.0268750151
0.0257676412
0.0246361588
0.0234804288
0.0223003144
0.0210956809
0.0198663963
0.0186123309
0.0173333573
0.0160293508
0.0147001891
0.0133457525
0.0119659239
0.0105605886
0.00912963484
0.00767295337
0.00619043771
0.00468198411
0.00314749159
0.001586862
1.9490972e-17
0.00161318687
0.00325278816
0.0049188905
0.00661157758
0.00833093006
0.0100770256
0.0118499389
0.0136497414
0.0154765017
0.0173302849
0.0192111534
0.021119166
0.0230543787
0.0250168438
0.0270066108
0.0290237256
0.0310682309
0.0331401662
0.0352395673
0.0373664671
0.0395208947
0.0417028759
0.0439124332
0.0461495855
0.0484143482
0.0507067332
0.053026749
0.0553744004
0.0577496888
0.0601526119
0.0625831638
0.0650413351
0.0675271126
0.0700404796
0.0725814157
0.0751498969
0.0777458953
0.0803693795
0.0830203142
0.0856986606
0.088404376
0.091137414
0.0938977244
0.0966852532
0.0994999427
0.102341731
0.105210554
0.108106341
0.11102902
0.113978514
0.116954742
0.11995762
0.12298706
0.126042969
0.129125251
0.132233807
0.135368532
0.13852932
0.141716059
0.144928633
0.148166924
0.151430808
0.154720158
0.158034844
0.161374731
0.16473968
0.16812955
0.171544194
0.174983462
0.1784472
0.181935251
0.185447453
0.18898364
0.192543644
0.196127291
0.199734405
0.203364805
0.207018308
0.210694724
0.214393862
0.218115526
0.221859517
0.225625632
0.229413665
0.233223404
0.237054636
0.240907143
0.244780704
0.248675093
0.252590082
0.256525438
0.260480926
0.264456306
0.268451336
0.272465769
0.276499355
0.28055184
0.284622969
0.28871248
0.29282011
0.296945592
0.301088656
0.305249027
0.30942643
0.313620582
0.317831202
0.322058001
0.326300691
0.330558978
0.334832566
0.339121155
0.343424442
0.347742124
0.35207389
0.356419429
0.360778427
0.365150567
0.369535528
0.373932987
0.378342619
0.382764094
0.387197081
0.391641245
0.396096251
0.400561759
0.405037426
0.409522907
0.414017857
0.418521925
0.423034758
0.427556003
0.432085303
0.436622298
0.441166628
0.445717927
0.450275832
0.454839972
0.459409979
0.46398548
0.468566101
0.473151465
0.477741194
0.48233491
0.486932228
0.491532766
0.496136139
0.500741958
0.505349836
0.509959382
0.514570204
0.519181908
0.5237941
0.528406382
0.533018358
0.537629627
0.542239791
0.546848446
0.551455191
0.556059621
0.560661332
0.565259917
0.569854969
0.574446081
0.579032844
0.583614849
0.588191684
0.592762939
0.597328202
0.601887061
0.606439103
0.610983915
0.615521083
0.620050192
0.624570828
0.629082576
0.633585022
0.638077749
0.642560343
0.647032387
0.651493468
0.655943168
0.660381074
0.664806768
0.669219838
0.673619867
0.678006442
0.682379148
0.686737571
0.6910813
0.69540992
0.69972302
0.704020188
0.708301014
0.712565087
0.716812
0.721041342
0.725252707
0.729445689
0.733619881
0.73777488
0.741910283
0.746025686
0.750120691
0.754194896
0.758247905
0.76227932
0.766288746
0.770275789
0.774240057
0.778181159
0.782098707
0.785992313
0.789861593
0.793706161
0.797525637
0.801319641
0.805087795
0.808829724
0.812545053
0.816233411
0.819894429
0.82352774
0.827132979
0.830709784
0.834257794
0.837776652
0.841266002
0.844725493
0.848154775
0.851553499
0.854921322
0.858257901
0.861562897
0.864835975
0.8680768
0.871285042
0.874460374
0.877602471
0.880711011
0.883785678
0.886826154
0.889832129
0.892803293
0.895739341
0.898639971
0.901504885
0.904333786
0.907126383
0.909882388
0.912601516
0.915283485
0.917928017
0.92053484
0.923103682
0.925634276
0.928126361
0.930579676
0.932993967
0.935368983
0.937704475
0.940000201
0.942255921
0.9444714
0.946646405
0.948780711
0.950874093
0.952926333
0.954937216
0.95690653
0.958834071
0.960719634
0.962563023
0.964364044
0.966122507
0.967838229
0.969511028
0.971140728
0.972727159
0.974270152
0.975769545
0.977225181
0.978636905
0.98000457
0.98132803
0.982607145
0.983841782
0.985031809
0.9861771
0.987277535
0.988332997
0.989343375
0.990308561
0.991228454
0.992102956
0.992931975
0.993715422
0.994453215
0.995145276
0.99579153
0.996391911
0.996946354
0.9974548
0.997917195
0.998333491
0.998703643
0.999027612
0.999305363
0.999536868
0.999722101
0.999861043
0.999953679
1
1
0.999953679
0.999861043
0.999722101
0.999536868
0.999305363
0.999027612
0.998703643
0.998333491
0.997917195
0.9974548
0.996946354
0.996391911
0.99579153
0.995145276
0.994453215
0.993715422
0.992931975
0.992102956
0.991228454
0.990308561
0.989343375
0.988332997
0.987277535
0.9861771
0.985031809
0.983841782
0.982607145
0.98132803
0.98000457
0.978636905
0.977225181
0.975769545
0.974270152
0.972727159
0.971140728
0.969511028
0.967838229
0.966122507
0.964364044
0.962563023
0.960719634
0.958834071
0.95690653
0.954937216
0.952926333
0.950874093
0.948780711
0.946646405
0.9444714
0.942255921
0.940000201
0.937704475
0.935368983
0.932993967
0.930579676
0.928126361
0.925634276
0.923103682
0.92053484
0.917928017
0.915283485
0.912601516
0.909882388
0.907126383
0.904333786
0.901504885
0.898639971
0.895739341
0.892803293
0.889832129
0.886826154
0.883785678
0.880711011
0.877602471
0.874460374
0.871285042
0.8680768
0.864835975
0.861562897
0.858257901
0.854921322
0.851553499
0.848154775
0.844725493
0.841266002
0.837776652
0.834257794
0.830709784
0.827132979
0.82352774
0.819894429
0.816233411
0.812545053
0.808829724
0.805087795
0.801319641
0.797525637
0.793706161
0.789861593
0.785992313
0.782098707
0.778181159
0.774240057
0.770275789
0.766288746
0.76227932
0.758247905
0.754194896
0.750120691
0.746025686
0.741910283
0.73777488
0.733619881
0.729445689
0.725252707
0.721041342
0.716812
0.712565087
0.708301014
0.704020188
0.69972302
0.69540992
0.6910813
0.686737571
0.682379148
0.678006442
0.673619867
0.669219838
0.664806768
0.660381074
0.655943168
0.651493468
0.647032387
0.642560343
0.638077749
0.633585022
0.629082576
0.624570828
0.620050192
0.615521083
0.610983915
0.606439103
0.601887061
0.597328202
0.592762939
0.588191684
0.583614849
0.579032844
0.574446081
0.569854969
0.565259917
0.560661332
0.556059621
0.551455191
0.546848446
0.542239791
0.537629627
0.533018358
0.528406382
0.5237941
0.519181908
0.514570204
0.509959382
0.505349836
0.500741958
0.496136139
0.491532766
0.486932228
0.48233491
0.477741194
0.473151465
0.468566101
0.46398548
0.459409979
0.454839972
0.450275832
0.445717927
0.441166628
0.436622298
0.432085303
0.427556003
0.423034758
0.418521925
0.414017857
0.409522907
0.405037426
0.400561759
0.396096251
0.391641245
0.387197081
0.382764094
0.378342619
0.373932987
0.369535528
0.365150567
0.360778427
0.356419429
0.35207389
0.347742124
0.343424442
0.339121155
0.334832566
0.330558978
0.326300691
0.322058001
0.317831202
0.313620582
0.30942643
0.305249027
0.301088656
0.296945592
0.29282011
0.28871248
0.284622969
0.28055184
0.276499355
0.272465769
0.268451336
0.264456306
0.260480926
0.256525438
0.252590082
0.248675093
0.244780704
0.240907143
0.237054636
0.233223404
0.229413665
0.225625632
0.221859517
0.218115526
0.214393862
0.210694724
0.207018308
0.203364805
0.199734405
0.196127291
0.192543644
0.18898364
0.185447453
0.181935251
0.1784472
0.174983462
0.171544194
0.16812955
0.16473968
0.161374731
0.158034844
0.154720158
0.151430808
0.148166924
0.144928633
0.141716059
0.13852932
0.135368532
0.132233807
0.129125251
0.126042969
0.12298706
0.11995762
0.116954742
0.113978514
0.11102902
0.108106341
0.105210554
0.102341731
0.0994999427
0.0966852532
0.0938977244
0.091137414
0.088404376
0.0856986606
0.0830203142
0.0803693795
0.0777458953
0.0751498969
0.0725814157
0.0700404796
0.0675271126
0.0650413351
0.0625831638
0.0601526119
0.0577496888
0.0553744004
0.053026749
0.0507067332
0.0484143482
0.0461495855
0.0439124332
0.0417028759
0.0395208947
0.0373664671
0.0352395673
0.0331401662
0.0310682309
0.0290237256
0.0270066108
0.0250168438
0.0230543787
0.021119166
0.0192111534
0.0173302849
0.0154765017
0.0136497414
0.0118499389
0.0100770256
0.00833093006
0.00661157758
0.0049188905
0.00325278816
0.00161318687
9.01703742e-17
0.001586862
0.00314749159
0.00468198411
0.00619043771
0.00767295337
0.00912963484
0.0105605886
0.0119659239
0.0133457525
0.0147001891
0.0160293508
0.0173333573
0.0186123309
0.0198663963
0.0210956809
0.0223003144
0.0234804288
0.0246361588
0.0257676412
0.0268750151
0.0279584219
0.0290180054
0.0300539113
0.0310662878
0.0320552849
0.033021055
0.0339637522
0.034883533
0.0357805556
0.0366549802
0.0375069691
0.0383366861
0.0391442972
0.03992997
0.0406938738
0.0414361798
0.0421570606
0.0428566908
0.0435352464
0.0441929048
0.0448298452
0.0454462483
0.0460422959
0.0466181715
0.04717406
0.0477101474
0.0482266211
0.0487236698
0.0492014834
0.0496602529
0.0501001705
0.0505214294
0.050924224
0.0513087495
0.0516752023
0.0520237796
0.0523546795
0.0526681011
0.0529642441
0.0532433091
0.0535054974
0.0537510111
0.0539800529
0.054192826
0.0543895343
0.0545703823
0.054735575
0.0548853176
0.0550198161
0.0551392767
0.055243906
0.0553339108
0.0554094983
0.0554708761
0.0555182515
0.0555518326
0.055571827
0.0555784429
0.0555718883
0.0555523713
0.0555200998
0.055475282
0.0554181256
0.0553488384
0.0552676281
0.0551747019
0.0550702672
0.0549545307
0.0548276991
0.0546899786
0.0545415751
0.0543826939
0.0542135402
0.0540343185
0.0538452327
0.0536464865
0.0534382825
0.0532208233
0.0529943104
0.0527589447
0.0525149267
0.0522624557
0.0520017307
0.0517329495
0.0514563093
0.0511720063
0.0508802361
0.0505811929
0.0502750705
0.0499620613
0.0496423568
0.0493161477
0.0489836233
0.0486449719
0.048300381
0.0479500365
0.0475941233
0.0472328253
0.046866325
0.0464948036
0.0461184412
0.0457374163
0.0453519066
0.0449620879
0.0445681351
0.0441702213
0.0437685184
0.043363197
0.042954426
0.0425423729
0.0421272038
0.0417090832
0.0412881739
0.0408646375
0.0404386338
0.040010321
0.0395798557
0.039147393
0.0387130861
0.0382770868
0.037839545
0.037400609
0.0369604255
0.0365191392
0.0360768933
0.0356338291
0.0351900861
0.0347458023
0.0343011135
0.0338561538
0.0334110558
0.0329659498
0.0325209645
0.0320762267
0.0316318613
0.0311879915
0.0307447382
0.0303022209
0.0298605567
0.0294198613
0.028980248
0.0285418284
0.0281047122
0.0276690071
0.0272348188
0.0268022511
0.0263714058
0.0259423828
0.0255152799
0.0250901931
0.0246672162
0.0242464413
0.0238279583
0.0234118552
0.0229982179
0.0225871305
0.022178675
0.0217729314
0.0213699777
0.0209698901
0.0205727424
0.0201786069
0.0197875536
0.0193996505
0.0190149638
0.0186335577
0.0182554943
0.0178808338
0.0175096345
0.0171419525
0.0167778423
0.0164173561
0.0160605444
0.0157074557
0.0153581364
0.0150126313
0.014670983
0.0143332323
0.0139994181
0.0136695774
0.0133437452
0.0130219549
0.0127042378
0.0123906234
0.0120811393
0.0117758114
0.0114746637
0.0111777184
0.0108849959
0.0105965147
0.0103122918
0.0100323421
0.00975667903
0.00948531411
0.0092182572
0.00895551645
0.0086970983
0.00844300753
0.00819324723
0.00794781886
0.00770672224
0.00746995557
0.00723751545
0.00700939688
0.0067855933
0.00656609661
0.00635089717
0.00613998379
0.00593334383
0.00573096313
0.00553282608
0.00533891562
0.00514921328
0.00496369916
0.00478235197
0.00460514908
0.00443206647
0.00426307883
0.0040981595
0.00393728057
0.00378041282
0.00362752582
0.00347858789
0.00333356614
0.0031924265
0.00305513373
0.00292165147
0.00279194221
0.00266596734
0.0025436872
0.00242506105
0.00231004711
0.00219860262
0.0020906838
0.00198624591
0.00188524328
0.0017876293
0.00169335648
0.00160237644
0.00151463996
0.00143009698
0.00134869663
0.00127038728
0.00119511652
0.00112283121
0.0010534775
0.000987000842
0.000923346039
0.000862457241
0.000804277982
0.000748751203
0.000695819275
0.000645424021
0.00059750674
0.000552008235
0.00050886883
0.000468028401
0.000429426393
0.000393001848
0.000358693427
0.000326439436
0.000296177847
0.00026784632
0.000241382233
0.000216722701
0.000193804597
0.000172564582
0.000152939125
0.000134864524
0.000118276933
0.000103112384
8.9306809e-05
7.67960651e-05
6.55159549e-05
5.5402251e-05
4.63907184e-05
3.84171366e-05
3.14173227e-05
2.53271536e-05
2.0082588e-05
1.56196886e-05
1.18746444e-05
8.78379229e-06
6.28363866e-06
4.31088127e-06
2.80243049e-06
1.69543061e-06
9.27280928e-07
4.35656719e-07
1.58530003e-07
3.41901524e-08
1.26432215e-09

shape_id 6
num_samples 1250
0.5
0
0
309
-0.5
0
0
623
0.5
0
0
309

shape_id 7
num_samples 4
1
0.251748252
0.251748252
1

shape_id 8
num_samples 4
0
13
143
156

shape_id 9
num_samples 2
0
156

shape_id 10
num_samples 1500
7.31570055e-10
1.97782602e-08
9.16836897e-08
2.51897167e-07
5.3603498e-07
9.79872225e-07
1.61933457e-06
2.49048995e-06
3.62954026e-06
5.07281287e-06
6.85675226e-06
9.01791142e-06
1.15929433e-05
1.46185923e-05
1.81316855e-05
2.21691237e-05
2.67678732e-05
3.19649567e-05
3.77974442e-05
4.43024446e-05
5.15170963e-05
5.94785584e-05
6.8224002e-05
7.77906004e-05
8.82155208e-05
9.95359146e-05
0.000111788908
0.000125011595
0.000139241024
0.000154514192
0.000170868036
0.000188339418
0.000206965123
0.000226781845
0.000247826179
0.000270134611
0.000293743511
0.000318689117
0.000345007536
0.000372734724
0.000401906484
0.000432558451
0.000464726088
0.000498444671
0.000533749283
0.000570674804
0.000609255901
0.000649527018
0.000691522367
0.000735275917
0.000780821387
0.000828192237
0.000877421652
0.000928542542
0.000981587525
0.00103658892
0.00109357874
0.00115258867
0.00121365009
0.00127679402
0.00134205114
0.00140945178
0.0014790259
0.0015508031
0.00162481256
0.0017010831
0.00177964313
0.00186052065
0.00194374321
0.00202933798
0.00211733165
0.00220775048
0.00230062027
0.00239596633
0.00249381354
0.00259418625
0.00269710834
0.00280260318
0.00291069363
0.00302140203
0.00313475019
0.00325075938
0.00336945031
0.00349084317
0.00361495755
0.00374181248
0.00387142641
0.0040038172
0.00413900211
0.0042769978
0.00441782031
0.00456148504
0.0047080068
0.00485739973
0.00500967732
0.00516485242
0.00532293721
0.00548394322
0.00564788126
0.00581476148
0.00598459335
0.00615738561
0.00633314631
0.00651188278
0.00669360162
0.00687830872
0.0070660092
0.00725670748
0.00745040719
0.00764711122
0.00784682169
0.00804953997
0.00825526661
0.00846400141
0.00867574338
0.00889049072
0.00910824083
0.0093289903
0.00955273492
0.00977946964
0.0100091886
0.0102418851
0.0104775516
0.0107161797
0.0109577602
0.011202283
0.0114497372
0.011700111
0.0119533917
0.0122095657
0.0124686187
0.0127305354
0.0129952995
0.013262894
0.0135333009
0.0138065014
0.0140824756
0.014361203
0.0146426618
0.0149268296
0.015213683
0.0155031977
0.0157953483
0.0160901087
0.0163874518
0.0166873494
0.0169897727
0.0172946917
0.0176020756
0.0179118924
0.0182241096
0.0185386933
0.018855609
0.019174821
0.0194962928
0.0198199869
0.0201458648
0.0204738872
0.0208040136
0.0211362028
0.0214704124
0.0218065993
0.0221447192
0.022484727
0.0228265765
0.0231702207
0.0235156115
0.0238627
0.0242114361
0.024561769
0.0249136469
0.0252670168
0.025621825
0.0259780167
0.0263355363
0.0266943271
0.0270543316
0.0274154911
0.0277777461
0.0281410364
0.0285053003
0.0288704758
0.0292364994
0.029603307
0.0299708334
0.0303390126
0.0307077777
0.0310770607
0.0314467927
0.0318169041
0.0321873241
0.0325579813
0.032928803
0.0332997161
0.033670646
0.0340415178
0.0344122554
0.0347827817
0.0351530191
0.0355228887
0.0358923111
0.0362612058
0.0366294915
0.0369970861
0.0373639066
0.0377298692
0.0380948892
0.0384588811
0.0388217587
0.0391834348
0.0395438214
0.0399028298
0.0402603705
0.0406163532
0.0409706867
0.0413232791
0.0416740379
0.0420228696
0.04236968
0.0427143743
0.0430568568
0.0433970311
0.0437348001
0.0440700661
0.0444027305
0.0447326942
0.0450598573
0.0453841191
0.0457053785
0.0460235337
0.046338482
0.0466501203
0.0469583448
0.0472630511
0.0475641342
0.0478614884
0.0481550075
0.0484445847
0.0487301127
0.0490114835
0.0492885887
0.0495613193
0.0498295656
0.0500932178
0.0503521652
0.0506062967
0.0508555009
0.0510996658
0.0513386789
0.0515724273
0.0518007976
0.0520236762
0.0522409488
0.0524525008
0.0526582174
0.0528579832
0.0530516825
0.0532391993
0.0534204171
0.0535952194
0.053763489
0.0539251088
0.054079961
0.0542279278
0.0543688911
0.0545027326
0.0546293337
0.0547485754
0.0548603389
0.0549645048
0.0550609539
0.0551495665
0.055230223
0.0553028035
0.0553671881
0.0554232567
0.0554708892
0.0555099653
0.0555403647
0.0555619671
0.055574652
0.0555782992
0.0555727882
0.0555579985
0.0555338099
0.0555001019
0.0554567543
0.055403647
0.0553406596
0.0552676723
0.0551845651
0.0550912183
0.0549875121
0.0548733271
0.0547485439
0.0546130435
0.054466707
0.0543094157
0.054141051
0.0539614948
0.0537706292
0.0535683364
0.0533544992
0.0531290006
0.0528917237
0.0526425522
0.0523813701
0.0521080619
0.0518225121
0.0515246062
0.0512142295
0.0508912682
0.0505556087
0.0502071381
0.0498457437
0.0494713135
0.0490837361
0.0486829003
0.0482686957
0.0478410126
0.0473997415
0.0469447738
0.0464760014
0.0459933169
0.0454966133
0.0449857847
0.0444607255
0.0439213309
0.0433674968
0.04279912
0.0422160977
0.0416183282
0.0410057103
0.0403781437
0.039735529
0.0390777674
0.0384047611
0.0377164132
0.0370126273
0.0362933084
0.0355583619
0.0348076945
0.0340412135
0.0332588274
0.0324604456
0.0316459783
0.0308153369
0.0299684336
0.0291051817
0.0282254956
0.0273292907
0.0264164834
0.0254869912
0.0245407326
0.0235776274
0.0225975964
0.0216005616
0.0205864459
0.0195551736
0.0185066701
0.017440862
0.0163576771
0.0152570443
0.0141388939
0.0130031574
0.0118497674
0.0106786579
0.00948976424
0.00828302285
0.00705837161
0.00581574969
0.00455509759
0.00327635713
0.00197947151
0.000664385287
0.000668955602
0.00202060383
0.00339061065
0.00477902593
0.00618589808
0.00761127409
0.00905519948
0.0105177183
0.0119988732
0.0134987053
0.0150172541
0.0165545578
0.018110653
0.0196855747
0.0212793565
0.0228920303
0.0245236265
0.026174174
0.0278437
0.0295322302
0.0312397887
0.032966398
0.0347120789
0.0364768505
0.0382607306
0.040063735
0.0418858781
0.0437271723
0.0455876288
0.0474672568
0.0493660638
0.0512840558
0.0532212369
0.0551776096
0.0571531747
0.0591479312
0.0611618764
0.0631950059
0.0652473135
0.0673187913
0.0694094296
0.0715192169
0.0736481399
0.0757961838
0.0779633317
0.080149565
0.0823548634
0.0845792047
0.0868225649
0.0890849183
0.0913662373
0.0936664924
0.0959856525
0.0983236845
0.100680554
0.103056223
0.105450654
0.107863807
0.110295638
0.112746105
0.115215161
0.117702758
0.120208847
0.122733377
0.125276293
0.127837542
0.130417065
0.133014804
0.135630698
0.138264684
0.140916698
0.143586675
0.146274544
0.148980237
0.151703681
0.154444803
0.157203526
0.159979774
0.162773467
0.165584524
0.168412862
0.171258395
0.174121037
0.177000699
0.179897291
0.18281072
0.185740892
0.188687712
0.19165108
0.194630898
0.197627064
0.200639474
0.203668024
0.206712606
0.209773111
0.212849429
0.215941447
0.219049051
0.222172125
0.225310551
0.228464209
0.231632979
0.234816736
0.238015356
0.241228712
0.244456676
0.247699117
0.250955904
0.254226902
0.257511976
0.26081099
0.264123803
0.267450277
0.270790267
0.274143631
0.277510223
0.280889896
0.2842825
0.287687884
0.291105898
0.294536386
0.297979193
0.301434163
0.304901136
0.308379952
0.311870449
0.315372464
0.318885832
0.322410386
0.325945957
0.329492377
0.333049475
0.336617076
0.340195009
0.343783095
0.34738116
0.350989024
0.354606507
0.358233427
0.361869603
0.365514849
0.36916898
0.372831809
0.376503148
0.380182807
0.383870595
0.38756632
0.391269787
0.394980803
0.398699171
0.402424693
0.406157171
0.409896405
0.413642193
0.417394334
