# Pulseq sequence file
# Created by MATLAB mr toolbox

[VERSION]
major 1
minor 5
revision 1

[DEFINITIONS]
AdcRasterTime 2e-06 
BlockDurationRaster 2e-05 
GradientRasterTime 2e-05 
Name epi 
PeakRF 502.44644 
RadiofrequencyRasterTime 2e-06 
ReadoutOversamplingFactor 2 
RequiredExtensions  
SliceGap 0.0015 
SlicePositions 0 
SliceThickness 0.005 
TR 0.09866 
TotalDuration 0.19732 

# Format of blocks:
# NUM DUR RF  GX  GY  GZ  ADC  EXT
[BLOCKS]
  1 449   1   0   0   1  0  4
  2 106   2   0   0   2  0  7
  3  25   0   3   0   4  0  9
  4  33   0   5   0   0  0 12
  5  33   0   6   0   0  0 15
  6  33   0   5   0   0  0 16
  7  25   0   0   7   0  0 18
  8  33   0   6   8   0  0 21
  9  33   0   5   9   0  0 23
 10  33   0   6   9   0  0 21
 11  33   0   5   9   0  0 23
 12  33   0   6   9   0  0 21
 13  33   0   5   9   0  0 23
 14  33   0   6   9   0  0 21
 15  33   0   5   9   0  0 23
 16  33   0   6   9   0  0 21
 17  33   0   5   9   0  0 23
 18  33   0   6   9   0  0 21
 19  33   0   5   9   0  0 23
 20  33   0   6   9   0  0 21
 21  33   0   5   9   0  0 23
 22  33   0   6   9   0  0 21
 23  33   0   5   9   0  0 23
 24  33   0   6   9   0  0 21
 25  33   0   5   9   0  0 23
 26  33   0   6   9   0  0 21
 27  33   0   5   9   0  0 23
 28  33   0   6   9   0  0 21
 29  33   0   5   9   0  0 23
 30  33   0   6   9   0  0 21
 31  33   0   5   9   0  0 23
 32  33   0   6   9   0  0 21
 33  33   0   5   9   0  0 23
 34  33   0   6   9   0  0 21
 35  33   0   5   9   0  0 23
 36  33   0   6   9   0  0 21
 37  33   0   5   9   0  0 23
 38  33   0   6   9   0  0 21
 39  33   0   5   9   0  0 23
 40  33   0   6   9   0  0 21
 41  33   0   5   9   0  0 23
 42  33   0   6   9   0  0 21
 43  33   0   5   9   0  0 23
 44  33   0   6   9   0  0 21
 45  33   0   5   9   0  0 23
 46  33   0   6   9   0  0 21
 47  33   0   5   9   0  0 23
 48  33   0   6   9   0  0 21
 49  33   0   5   9   0  0 23
 50  33   0   6   9   0  0 21
 51  33   0   5   9   0  0 23
 52  33   0   6   9   0  0 21
 53  33   0   5   9   0  0 23
 54  33   0   6   9   0  0 21
 55  33   0   5   9   0  0 23
 56  33   0   6   9   0  0 21
 57  33   0   5   9   0  0 23
 58  33   0   6   9   0  0 21
 59  33   0   5   9   0  0 23
 60  33   0   6   9   0  0 21
 61  33   0   5   9   0  0 23
 62  33   0   6   9   0  0 21
 63  33   0   5   9   0  0 23
 64  33   0   6   9   0  0 21
 65  33   0   5   9   0  0 23
 66  33   0   6   9   0  0 21
 67  33   0   5   9   0  0 23
 68  33   0   6   9   0  0 21
 69  33   0   5   9   0  0 23
 70  33   0   6   9   0  0 21
 71  33   0   5   9   0  0 23
 72  33   0   6   9   0  0 21
 73  33   0   5   9   0  0 23
 74  33   0   6   9   0  0 21
 75  33   0   5   9   0  0 23
 76  33   0   6   9   0  0 21
 77  33   0   5   9   0  0 23
 78  33   0   6   9   0  0 21
 79  33   0   5   9   0  0 23
 80  33   0   6   9   0  0 21
 81  33   0   5   9   0  0 23
 82  33   0   6   9   0  0 21
 83  33   0   5   9   0  0 23
 84  33   0   6   9   0  0 21
 85  33   0   5   9   0  0 23
 86  33   0   6   9   0  0 21
 87  33   0   5   9   0  0 23
 88  33   0   6   9   0  0 21
 89  33   0   5   9   0  0 23
 90  33   0   6   9   0  0 21
 91  33   0   5   9   0  0 23
 92  33   0   6   9   0  0 21
 93  33   0   5   9   0  0 23
 94  33   0   6   9   0  0 21
 95  33   0   5   9   0  0 23
 96  33   0   6   9   0  0 21
 97  33   0   5   9   0  0 23
 98  33   0   6   9   0  0 21
 99  33   0   5   9   0  0 23
100  33   0   6   9   0  0 21
101  33   0   5   9   0  0 23
102  33   0   6   9   0  0 21
103  33   0   5   9   0  0 23
104  33   0   6   9   0  0 21
105  33   0   5   9   0  0 23
106  33   0   6   9   0  0 21
107  33   0   5   9   0  0 23
108  33   0   6   9   0  0 21
109  33   0   5   9   0  0 23
110  33   0   6   9   0  0 21
111  33   0   5   9   0  0 23
112  33   0   6   9   0  0 21
113  33   0   5   9   0  0 23
114  33   0   6   9   0  0 21
115  33   0   5   9   0  0 23
116  33   0   6   9   0  0 21
117  33   0   5   9   0  0 23
118  33   0   6   9   0  0 21
119  33   0   5   9   0  0 23
120  33   0   6   9   0  0 21
121  33   0   5   9   0  0 23
122  33   0   6   9   0  0 21
123  33   0   5   9   0  0 23
124  33   0   6   9   0  0 21
125  33   0   5   9   0  0 23
126  33   0   6   9   0  0 21
127  33   0   5   9   0  0 23
128  33   0   6   9   0  0 21
129  33   0   5   9   0  0 23
130  33   0   6   9   0  0 21
131  33   0   5   9   0  0 23
132  33   0   6   9   0  0 21
133  33   0   5   9   0  0 23
134  33   0   6   9   0  0 21
135  33   0   5  10   0  0 23
136   5   0   0   0   0  0 24
137 449   1   0   0   1  0 28
138 106   3   0   0   2  0  7
139  25   0   3   0   4  0  9
140  33   0   5   0   0  1 12
141  33   0   6   0   0  1 15
142  33   0   5   0   0  1 16
143  25   0   0  11   0  0 18
144  33   0   6   8   0  1 21
145  33   0   5   9   0  1 23
146  33   0   6   9   0  1 21
147  33   0   5   9   0  1 23
148  33   0   6   9   0  1 21
149  33   0   5   9   0  1 23
150  33   0   6   9   0  1 21
151  33   0   5   9   0  1 23
152  33   0   6   9   0  1 21
153  33   0   5   9   0  1 23
154  33   0   6   9   0  1 21
155  33   0   5   9   0  1 23
156  33   0   6   9   0  1 21
157  33   0   5   9   0  1 23
158  33   0   6   9   0  1 21
159  33   0   5   9   0  1 23
160  33   0   6   9   0  1 21
161  33   0   5   9   0  1 23
162  33   0   6   9   0  1 21
163  33   0   5   9   0  1 23
164  33   0   6   9   0  1 21
165  33   0   5   9   0  1 23
166  33   0   6   9   0  1 21
167  33   0   5   9   0  1 23
168  33   0   6   9   0  1 21
169  33   0   5   9   0  1 23
170  33   0   6   9   0  1 21
171  33   0   5   9   0  1 23
172  33   0   6   9   0  1 21
173  33   0   5   9   0  1 23
174  33   0   6   9   0  1 21
175  33   0   5   9   0  1 23
176  33   0   6   9   0  1 21
177  33   0   5   9   0  1 23
178  33   0   6   9   0  1 21
179  33   0   5   9   0  1 23
180  33   0   6   9   0  1 21
181  33   0   5   9   0  1 23
182  33   0   6   9   0  1 21
183  33   0   5   9   0  1 23
184  33   0   6   9   0  1 21
185  33   0   5   9   0  1 23
186  33   0   6   9   0  1 21
187  33   0   5   9   0  1 23
188  33   0   6   9   0  1 21
189  33   0   5   9   0  1 23
190  33   0   6   9   0  1 21
191  33   0   5   9   0  1 23
192  33   0   6   9   0  1 21
193  33   0   5   9   0  1 23
194  33   0   6   9   0  1 21
195  33   0   5   9   0  1 23
196  33   0   6   9   0  1 21
197  33   0   5   9   0  1 23
198  33   0   6   9   0  1 21
199  33   0   5   9   0  1 23
200  33   0   6   9   0  1 21
201  33   0   5   9   0  1 23
202  33   0   6   9   0  1 21
203  33   0   5   9   0  1 23
204  33   0   6   9   0  1 21
205  33   0   5   9   0  1 23
206  33   0   6   9   0  1 21
207  33   0   5   9   0  1 23
208  33   0   6   9   0  1 21
209  33   0   5   9   0  1 23
210  33   0   6   9   0  1 21
211  33   0   5   9   0  1 23
212  33   0   6   9   0  1 21
213  33   0   5   9   0  1 23
214  33   0   6   9   0  1 21
215  33   0   5   9   0  1 23
216  33   0   6   9   0  1 21
217  33   0   5   9   0  1 23
218  33   0   6   9   0  1 21
219  33   0   5   9   0  1 23
220  33   0   6   9   0  1 21
221  33   0   5   9   0  1 23
222  33   0   6   9   0  1 21
223  33   0   5   9   0  1 23
224  33   0   6   9   0  1 21
225  33   0   5   9   0  1 23
226  33   0   6   9   0  1 21
227  33   0   5   9   0  1 23
228  33   0   6   9   0  1 21
229  33   0   5   9   0  1 23
230  33   0   6   9   0  1 21
231  33   0   5   9   0  1 23
232  33   0   6   9   0  1 21
233  33   0   5   9   0  1 23
234  33   0   6   9   0  1 21
235  33   0   5   9   0  1 23
236  33   0   6   9   0  1 21
237  33   0   5   9   0  1 23
238  33   0   6   9   0  1 21
239  33   0   5   9   0  1 23
240  33   0   6   9   0  1 21
241  33   0   5   9   0  1 23
242  33   0   6   9   0  1 21
243  33   0   5   9   0  1 23
244  33   0   6   9   0  1 21
245  33   0   5   9   0  1 23
246  33   0   6   9   0  1 21
247  33   0   5   9   0  1 23
248  33   0   6   9   0  1 21
249  33   0   5   9   0  1 23
250  33   0   6   9   0  1 21
251  33   0   5   9   0  1 23
252  33   0   6   9   0  1 21
253  33   0   5   9   0  1 23
254  33   0   6   9   0  1 21
255  33   0   5   9   0  1 23
256  33   0   6   9   0  1 21
257  33   0   5   9   0  1 23
258  33   0   6   9   0  1 21
259  33   0   5   9   0  1 23
260  33   0   6   9   0  1 21
261  33   0   5   9   0  1 23
262  33   0   6   9   0  1 21
263  33   0   5   9   0  1 23
264  33   0   6   9   0  1 21
265  33   0   5   9   0  1 23
266  33   0   6   9   0  1 21
267  33   0   5   9   0  1 23
268  33   0   6   9   0  1 21
269  33   0   5   9   0  1 23
270  33   0   6   9   0  1 21
271  33   0   5  10   0  1 23
272   5   0   0   0   0  0 24

# Format of RF events:
# id ampl. mag_id phase_id time_shape_id center delay freqPPM phasePPM freq phase use
# ..   Hz      ..       ..            ..     us    us     ppm  rad/MHz   Hz   rad  ..
# Field 'use' is the initial of: 
#   excitation refocusing inversion saturation preparation other undefined
[RF]
1      130.746 1 2 0 4000 0 -3.35 0.0841947 0 0 s
2      502.446 3 4 0 1000 60 0 0 0 0 e
3      502.446 3 4 0 1000 60 0 0 0 -0 e

# Format of arbitrary gradients:
#   time_shape_id of 0 means default timing (stepping with grad_raster starting at 1/2 of grad_raster)
# id amplitude first last amp_shape_id time_shape_id delay
# ..      Hz/m  Hz/m Hz/m        ..         ..          us
[GRADIENTS]
8     -75757.6            0     -75757.6 5 6 620
9     -75757.6     -75757.6     -75757.6 7 8 0
10     -75757.6     -75757.6            0 9 6 0

# Format of trapezoid gradients:
# id amplitude rise flat fall delay
# ..      Hz/m   us   us   us    us
[TRAP]
 1  1.19048e+06 140  700 140 8000
 2       400000  60 2000  60   0
 3  1.08728e+06 140    0 140 220
 4 -1.14444e+06 140  220 140   0
 5      -507400  60  540  60   0
 6       507400  60  540  60   0
 7            0 100  300 100   0
11       715909 100  300 100   0

# Format of ADC events:
# id num dwell delay freqPPM phasePPM freq phase phase_id
# ..  ..    ns    us     ppm  rad/MHz   Hz   rad       ..
[ADC]
1 128 4000 74 0 0 0 0 0

# Format of extension lists:
# id type ref next_id
# next_id of 0 terminates the list
# Extension list is followed by extension specifications
[EXTENSIONS]
1 1 1 0
2 1 2 1
3 1 3 2
4 1 4 3
5 3 1 0
6 1 5 5
7 1 6 6
8 1 7 0
9 1 8 8
10 1 9 0
11 1 10 10
12 1 11 11
13 1 11 0
14 1 12 13
15 1 13 14
16 1 14 11
17 1 15 13
18 1 16 17
19 4 1 0
20 1 12 19
21 1 13 20
22 1 9 19
23 1 10 22
24 4 2 0
25 1 2 0
26 1 3 25
27 1 4 26
28 1 17 27

# Extension specification for digital output and input triggers:
# id type channel delay (us) duration (us)
extension TRIGGERS 3
1 1 1 0 100

# Extension specification for setting labels:
# id set labelstring
extension LABELSET 1
1 1 ONCE
2 0 SLC
3 1 NOPOS
4 1 NOROT
5 0 NOPOS
6 0 NOROT
7 1 NAV
8 64 LIN
9 1 REV
10 1 SEG
11 0 AVG
12 0 REV
13 0 SEG
14 1 AVG
15 -1 LIN
16 0 NAV
17 0 ONCE

# Extension specification for increasing labels:
# id inc labelstring
extension LABELINC 4
1 1 LIN
2 1 SLC

# Sequence Shapes
[SHAPES]

shape_id 1
num_samples 4000
0.000101196478
0.000102131623
0.000103074935
0.000104026481
0.000104986328
0.000105954544
0.000106931197
0.000107916356
0.00010891009
0.000109912469
0.000110923564
0.000111943444
0.000112972182
0.000114009849
0.000115056518
0.000116112261
0.000117177153
0.000118251266
0.000119334677
0.00012042746
0.00012152969
0.000122641444
0.000123762799
0.000124893833
0.000126034622
0.000127185247
0.000128345785
0.000129516317
0.000130696923
0.000131887684
0.000133088682
0.000134299998
0.000135521715
0.000136753917
0.000137996688
0.000139250111
0.000140514273
0.000141789259
0.000143075155
0.000144372049
0.000145680028
0.000146999181
0.000148329596
0.000149671363
0.000151024573
0.000152389317
0.000153765685
0.000155153771
0.000156553667
0.000157965467
0.000159389265
0.000160825156
0.000162273236
0.000163733601
0.000165206348
0.000166691576
0.000168189382
0.000169699865
0.000171223126
0.000172759265
0.000174308384
0.000175870584
0.000177445969
0.000179034641
0.000180636706
0.000182252267
0.000183881432
0.000185524306
0.000187180998
0.000188851613
0.000190536263
0.000192235056
0.000193948103
0.000195675515
0.000197417403
0.000199173881
0.000200945063
0.000202731062
0.000204531994
0.000206347974
0.00020817912
0.00021002555
0.000211887381
0.000213764734
0.000215657727
0.000217566483
0.000219491123
0.00022143177
0.000223388547
0.000225361579
0.000227350992
0.000229356911
0.000231379463
0.000233418777
0.000235474981
0.000237548206
0.000239638581
0.000241746239
0.000243871312
0.000246013933
0.000248174237
0.000250352359
0.000252548436
0.000254762604
0.000256995002
0.000259245768
0.000261515044
0.000263802969
0.000266109687
0.000268435339
0.00027078007
0.000273144025
0.00027552735
0.000277930192
0.000280352699
0.000282795019
0.000285257304
0.000287739703
0.00029024237
0.000292765456
0.000295309117
0.000297873508
0.000300458785
0.000303065105
0.000305692627
0.00030834151
0.000311011915
0.000313704004
0.000316417939
0.000319153884
0.000321912005
0.000324692467
0.000327495439
0.000330321087
0.000333169582
0.000336041095
0.000338935797
0.000341853861
0.000344795462
0.000347760774
0.000350749975
0.000353763242
0.000356800754
0.00035986269
0.000362949234
0.000366060565
0.00036919687
0.000372358332
0.000375545138
0.000378757475
0.000381995532
0.000385259499
0.000388549567
0.000391865928
0.000395208777
0.000398578308
0.000401974718
0.000405398205
0.000408848967
0.000412327204
0.000415833119
0.000419366914
0.000422928793
0.000426518963
0.000430137629
0.000433785001
0.000437461288
0.000441166701
0.000444901453
0.000448665757
0.000452459828
0.000456283885
0.000460138143
0.000464022824
0.000467938147
0.000471884336
0.000475861614
0.000479870206
0.000483910339
0.000487982242
0.000492086143
0.000496222275
0.000500390869
0.000504592161
0.000508826385
0.00051309378
0.000517394583
0.000521729035
0.000526097378
0.000530499855
0.000534936711
0.000539408193
0.000543914549
0.000548456028
0.000553032883
0.000557645365
0.000562293729
0.000566978231
0.00057169913
0.000576456684
0.000581251155
0.000586082806
0.0005909519
0.000595858704
0.000600803486
0.000605786515
0.000610808062
0.000615868401
0.000620967805
0.000626106551
0.000631284918
0.000636503184
0.000641761632
0.000647060546
0.000652400209
0.000657780909
0.000663202936
0.000668666578
0.00067417213
0.000679719884
0.000685310137
0.000690943187
0.000696619334
0.000702338878
0.000708102125
0.000713909378
0.000719760945
0.000725657136
0.00073159826
0.000737584633
0.000743616567
0.000749694381
0.000755818393
0.000761988923
0.000768206295
0.000774470833
0.000780782865
0.000787142718
0.000793550723
0.000800007214
0.000806512525
0.000813066993
0.000819670957
0.000826324758
0.000833028739
0.000839783245
0.000846588623
0.000853445223
0.000860353397
0.000867313498
0.000874325881
0.000881390904
0.000888508929
0.000895680316
0.000902905431
0.00091018464
0.000917518312
0.000924906817
0.00093235053
0.000939849826
0.000947405082
0.000955016679
0.000962684998
0.000970410426
0.000978193347
0.000986034152
0.000993933233
0.00100189098
0.0010099078
0.00101798407
0.00102612022
0.00103431663
0.00104257371
0.00105089188
0.00105927154
0.0010677131
0.00107621698
0.0010847836
0.00109341338
0.00110210675
0.00111086411
0.00111968592
0.00112857258
0.00113752454
0.00114654224
0.0011556261
0.00116477658
0.00117399411
0.00118327913
0.0011926321
0.00120205347
0.0012115437
0.00122110322
0.00123073251
0.00124043203
0.00125020224
0.00126004361
0.0012699566
0.00127994168
0.00128999934
0.00130013005
0.00131033429
0.00132061254
0.00133096529
0.00134139303
0.00135189624
0.00136247543
0.00137313108
0.0013838637
0.0013946738
0.00140556186
0.00141652842
0.00142757396
0.00143869902
0.0014499041
0.00146118972
0.00147255641
0.0014840047
0.00149553511
0.00150714817
0.00151884443
0.0015306244
0.00154248864
0.0015544377
0.00156647211
0.00157859242
0.0015907992
0.00160309299
0.00161547435
0.00162794385
0.00164050204
0.00165314951
0.00166588682
0.00167871454
0.00169163325
0.00170464354
0.00171774599
0.00173094118
0.0017442297
0.00175761215
0.00177108913
0.00178466124
0.00179832908
0.00181209325
0.00182595437
0.00183991305
0.00185396991
0.00186812556
0.00188238064
0.00189673576
0.00191119156
0.00192574868
0.00194040774
0.0019551694
0.00197003429
0.00198500306
0.00200007636
0.00201525485
0.00203053918
0.00204593003
0.00206142804
0.0020770339
0.00209274826
0.00210857182
0.00212450524
0.00214054922
0.00215670443
0.00217297157
0.00218935134
0.00220584442
0.00222245153
0.00223917336
0.00225601062
0.00227296403
0.00229003431
0.00230722217
0.00232452833
0.00234195353
0.0023594985
0.00237716397
0.00239495068
0.00241285937
0.00243089079
0.00244904569
0.00246732482
0.00248572895
0.00250425884
0.00252291524
0.00254169894
0.00256061071
0.00257965132
0.00259882155
0.0026181222
0.00263755406
0.00265711791
0.00267681455
0.0026966448
0.00271660945
0.00273670931
0.0027569452
0.00277731795
0.00279782836
0.00281847728
0.00283926553
0.00286019394
0.00288126336
0.00290247463
0.0029238286
0.00294532612
0.00296696805
0.00298875525
0.00301068858
0.00303276892
0.00305499714
0.00307737412
0.00309990074
0.00312257788
0.00314540644
0.00316838732
0.00319152142
0.00321480964
0.00323825289
0.00326185208
0.00328560814
0.00330952198
0.00333359454
0.00335782674
0.00338221953
0.00340677384
0.00343149062
0.00345637082
0.00348141539
0.0035066253
0.00353200151
0.00355754499
0.00358325671
0.00360913765
0.0036351888
0.00366141114
0.00368780566
0.00371437336
0.00374111525
0.00376803233
0.00379512561
0.00382239611
0.00384984486
0.00387747287
0.00390528118
0.00393327083
0.00396144285
0.0039897983
0.00401833822
0.00404706367
0.00407597571
0.0041050754
0.00413436383
0.00416384206
0.00419351117
0.00422337225
0.0042534264
0.0042836747
0.00431411827
0.0043447582
0.0043755956
0.00440663161
0.00443786733
0.00446930389
0.00450094243
0.00453278408
0.00456482999
0.00459708131
0.00462953918
0.00466220477
0.00469507924
0.00472816376
0.0047614595
0.00479496765
0.00482868939
0.00486262591
0.00489677841
0.00493114808
0.00496573614
0.0050005438
0.00503557227
0.00507082278
0.00510629656
0.00514199484
0.00517791886
0.00521406987
0.00525044911
0.00528705785
0.00532389735
0.00536096887
0.00539827369
0.00543581308
0.00547358833
0.00551160074
0.00554985159
0.00558834219
0.00562707384
0.00566604787
0.00570526558
0.0057447283
0.00578443736
0.00582439411
0.00586459987
0.005905056
0.00594576386
0.00598672479
0.00602794017
0.00606941137
0.00611113976
0.00615312673
0.00619537366
0.00623788196
0.00628065301
0.00632368824
0.00636698904
0.00641055684
0.00645439307
0.00649849916
0.00654287653
0.00658752664
0.00663245093
0.00667765086
0.00672312789
0.00676888349
0.00681491912
0.00686123628
0.00690783644
0.0069547211
0.00700189175
0.0070493499
0.00709709706
0.00714513474
0.00719346448
0.00724208779
0.00729100622
0.0073402213
0.00738973458
0.00743954762
0.00748966198
0.00754007922
0.00759080093
0.00764182867
0.00769316403
0.00774480861
0.00779676401
0.00784903182
0.00790161367
0.00795451117
0.00800772595
0.00806125963
0.00811511386
0.00816929027
0.00822379053
0.00827861628
0.00833376919
0.00838925093
0.00844506318
0.00850120762
0.00855768594
0.00861449983
0.00867165101
0.00872914118
0.00878697206
0.00884514536
0.00890366283
0.00896252619
0.0090217372
0.00908129759
0.00914120913
0.00920147358
0.00926209271
0.0093230683
0.00938440213
0.00944609599
0.00950815168
0.009570571
0.00963335576
0.00969650779
0.0097600289
0.00982392093
0.00988818571
0.0099528251
0.0100178409
0.0100832351
0.0101490094
0.0102151658
0.0102817061
0.0103486322
0.010415946
0.0104836495
0.0105517444
0.0106202328
0.0106891165
0.0107583976
0.0108280778
0.0108981592
0.0109686437
0.0110395333
0.0111108298
0.0111825354
0.011254652
0.0113271815
0.011400126
0.0114734874
0.0115472678
0.0116214692
0.0116960935
0.0117711429
0.0118466193
0.0119225248
0.0119988614
0.0120756312
0.0121528363
0.0122304787
0.0123085606
0.0123870839
0.0124660508
0.0125454634
0.0126253237
0.012705634
0.0127863963
0.0128676127
0.0129492855
0.0130314166
0.0131140083
0.0131970628
0.0132805821
0.0133645685
0.0134490242
0.0135339512
0.013619352
0.0137052285
0.013791583
0.0138784178
0.0139657351
0.0140535371
0.014141826
0.0142306041
0.0143198736
0.0144096367
0.0144998959
0.0145906533
0.0146819111
0.0147736718
0.0148659376
0.0149587107
0.0150519936
0.0151457885
0.0152400977
0.0153349236
0.0154302685
0.0155261348
0.0156225248
0.0157194408
0.0158168854
0.0159148607
0.0160133693
0.0161124134
0.0162119956
0.0163121181
0.0164127835
0.0165139941
0.0166157524
0.0167180607
0.0168209216
0.0169243376
0.0170283109
0.0171328442
0.0172379398
0.0173436004
0.0174498282
0.017556626
0.017663996
0.017771941
0.0178804633
0.0179895655
0.0180992501
0.0182095197
0.0183203769
0.0184318241
0.0185438639
0.0186564989
0.0187697317
0.0188835648
0.0189980009
0.0191130426
0.0192286924
0.0193449529
0.0194618268
0.0195793168
0.0196974253
0.0198161552
0.019935509
0.0200554894
0.020176099
0.0202973406
0.0204192167
0.0205417302
0.0206648836
0.0207886797
0.0209131212
0.0210382108
0.0211639512
0.0212903451
0.0214173954
0.0215451047
0.0216734758
0.0218025114
0.0219322143
0.0220625873
0.0221936332
0.0223253547
0.0224577546
0.0225908358
0.022724601
0.0228590531
0.0229941949
0.0231300292
0.0232665589
0.0234037868
0.0235417157
0.0236803485
0.0238196881
0.0239597374
0.0241004992
0.0242419764
0.0243841719
0.0245270886
0.0246707295
0.0248150973
0.0249601952
0.0251060259
0.0252525924
0.0253998977
0.0255479447
0.0256967364
0.0258462757
0.0259965656
0.0261476091
0.0262994091
0.0264519687
0.0266052909
0.0267593786
0.0269142349
0.0270698628
0.0272262653
0.0273834455
0.0275414063
0.0277001509
0.0278596822
0.0280200034
0.0281811175
0.0283430276
0.0285057367
0.028669248
0.0288335645
0.0289986893
0.0291646256
0.0293313764
0.0294989449
0.0296673342
0.0298365475
0.0300065878
0.0301774582
0.0303491621
0.0305217025
0.0306950825
0.0308693054
0.0310443743
0.0312202924
0.031397063
0.0315746891
0.031753174
0.0319325209
0.032112733
0.0322938135
0.0324757657
0.0326585928
0.032842298
0.0330268846
0.0332123558
0.0333987149
0.0335859651
0.0337741097
0.033963152
0.0341530953
0.0343439428
0.0345356979
0.0347283637
0.0349219438
0.0351164413
0.0353118595
0.0355082018
0.0357054716
0.035903672
0.0361028066
0.0363028786
0.0365038913
0.0367058482
0.0369087526
0.0371126078
0.0373174172
0.0375231842
0.0377299122
0.0379376046
0.0381462647
0.038355896
0.0385665018
0.0387780856
0.0389906508
0.0392042008
0.0394187389
0.0396342688
0.0398507937
0.0400683171
0.0402868425
0.0405063732
0.0407269129
0.0409484648
0.0411710326
0.0413946196
0.0416192293
0.0418448652
0.0420715307
0.0422992295
0.0425279649
0.0427577404
0.0429885596
0.0432204259
0.0434533429
0.0436873141
0.043922343
0.044158433
0.0443955878
0.0446338109
0.0448731058
0.045113476
0.0453549251
0.0455974566
0.0458410741
0.0460857811
0.0463315812
0.046578478
0.046826475
0.0470755757
0.0473257839
0.0475771029
0.0478295365
0.0480830882
0.0483377616
0.0485935602
0.0488504877
0.0491085477
0.0493677438
0.0496280796
0.0498895586
0.0501521845
0.0504159609
0.0506808915
0.0509469798
0.0512142295
0.0514826442
0.0517522275
0.0520229831
0.0522949145
0.0525680255
0.0528423197
0.0531178007
0.0533944721
0.0536723376
0.0539514009
0.0542316656
0.0545131354
0.0547958139
0.0550797048
0.0553648117
0.0556511383
0.0559386883
0.0562274653
0.0565174731
0.0568087152
0.0571011954
0.0573949173
0.0576898846
0.0579861011
0.0582835703
0.0585822959
0.0588822817
0.0591835313
0.0594860484
0.0597898366
0.0600948998
0.0604012416
0.0607088656
0.0610177755
0.0613279752
0.0616394681
0.0619522581
0.0622663488
0.062581744
0.0628984473
0.0632164624
0.0635357931
0.0638564429
0.0641784157
0.0645017152
0.0648263449
0.0651523087
0.0654796101
0.0658082531
0.0661382411
0.066469578
0.0668022673
0.067136313
0.0674717185
0.0678084877
0.0681466242
0.0684861317
0.0688270139
0.0691692746
0.0695129173
0.0698579459
0.070204364
0.0705521753
0.0709013835
0.0712519923
0.0716040053
0.0719574264
0.072312259
0.0726685071
0.0730261741
0.0733852639
0.0737457801
0.0741077263
0.0744711064
0.0748359238
0.0752021824
0.0755698857
0.0759390376
0.0763096415
0.0766817013
0.0770552205
0.0774302028
0.077806652
0.0781845715
0.0785639652
0.0789448366
0.0793271895
0.0797110274
0.080096354
0.0804831729
0.0808714878
0.0812613023
0.0816526201
0.0820454447
0.0824397799
0.0828356291
0.0832329961
0.0836318845
0.0840322978
0.0844342397
0.0848377138
0.0852427237
0.0856492729
0.0860573651
0.0864670038
0.0868781927
0.0872909353
0.0877052352
0.0881210959
0.0885385211
0.0889575142
0.0893780789
0.0898002187
0.0902239371
0.0906492376
0.0910761239
0.0915045994
0.0919346677
0.0923663322
0.0927995966
0.0932344642
0.0936709386
0.0941090233
0.0945487219
0.0949900377
0.0954329742
0.0958775349
0.0963237234
0.096771543
0.0972209971
0.0976720894
0.0981248231
0.0985792017
0.0990352287
0.0994929074
0.0999522413
0.100413234
0.100875888
0.101340208
0.101806197
0.102273857
0.102743193
0.103214208
0.103686906
0.104161288
0.10463736
0.105115124
0.105594583
0.106075741
0.106558602
0.107043167
0.107529442
0.108017428
0.10850713
0.10899855
0.109491692
0.109986559
0.110483155
0.110981481
0.111481543
0.111983342
0.112486883
0.112992167
0.113499199
0.114007982
0.114518519
0.115030812
0.115544865
0.116060682
0.116578265
0.117097617
0.117618742
0.118141642
0.118666321
0.119192781
0.119721027
0.12025106
0.120782884
0.121316501
0.121851916
0.12238913
0.122928147
0.12346897
0.124011601
0.124556045
0.125102302
0.125650378
0.126200273
0.126751992
0.127305537
0.127860912
0.128418118
0.128977159
0.129538037
0.130100756
0.130665318
0.131231726
0.131799983
0.132370092
0.132942054
0.133515874
0.134091554
0.134669096
0.135248503
0.135829778
0.136412924
0.136997942
0.137584837
0.13817361
0.138764264
0.139356801
0.139951225
0.140547538
0.141145742
0.141745839
0.142347833
0.142951726
0.143557521
0.144165219
0.144774823
0.145386337
0.145999761
0.146615099
0.147232353
0.147851525
0.148472617
0.149095633
0.149720574
0.150347443
0.150976242
0.151606973
0.152239638
0.15287424
0.153510781
0.154149263
0.154789688
0.155432059
0.156076378
0.156722646
0.157370866
0.15802104
0.15867317
0.159327259
0.159983307
0.160641317
0.161301292
0.161963233
0.162627142
0.163293021
0.163960872
0.164630696
0.165302497
0.165976275
0.166652033
0.167329772
0.168009494
0.168691201
0.169374895
0.170060577
0.170748249
0.171437914
0.172129571
0.172823224
0.173518874
0.174216522
0.174916171
0.175617821
0.176321474
0.177027132
0.177734796
0.178444468
0.179156149
0.179869841
0.180585545
0.181303262
0.182022995
0.182744744
0.18346851
0.184194295
0.184922101
0.185651927
0.186383777
0.187117651
0.18785355
0.188591475
0.189331427
0.190073409
0.19081742
0.191563461
0.192311535
0.193061642
0.193813782
0.194567958
0.195324169
0.196082417
0.196842703
0.197605028
0.198369392
0.199135796
0.199904242
0.200674729
0.201447259
0.202221833
0.202998451
0.203777114
0.204557822
0.205340576
0.206125377
0.206912226
0.207701122
0.208492067
0.209285061
0.210080104
0.210877197
0.21167634
0.212477535
0.21328078
0.214086077
0.214893425
0.215702826
0.216514279
0.217327784
0.218143342
0.218960953
0.219780618
0.220602335
0.221426106
0.22225193
0.223079808
0.223909739
0.224741724
0.225575762
0.226411854
0.227249998
0.228090196
0.228932447
0.229776751
0.230623107
0.231471515
0.232321976
0.233174488
0.234029052
0.234885667
0.235744332
0.236605048
0.237467814
0.238332628
0.239199492
0.240068404
0.240939364
0.241812371
0.242687424
0.243564523
0.244443667
0.245324856
0.246208088
0.247093363
0.24798068
0.248870038
0.249761437
0.250654875
0.251550351
0.252447865
0.253347416
0.254249002
0.255152622
0.256058275
0.256965961
0.257875678
0.258787424
0.259701199
0.260617001
0.26153483
0.262454682
0.263376559
0.264300457
0.265226375
0.266154313
0.267084268
0.26801624
0.268950225
0.269886224
0.270824234
0.271764253
0.27270628
0.273650314
0.274596352
0.275544392
0.276494434
0.277446474
0.278400511
0.279356544
0.280314569
0.281274586
0.282236592
0.283200585
0.284166563
0.285134523
0.286104465
0.287076384
0.28805028
0.28902615
0.290003992
0.290983803
0.291965581
0.292949323
0.293935028
0.294922691
0.295912312
0.296903888
0.297897415
0.298892892
0.299890315
0.300889682
0.301890991
0.302894237
0.30389942
0.304906535
0.30591558
0.306926551
0.307939447
0.308954264
0.309970999
0.310989649
0.312010211
0.313032681
0.314057057
0.315083335
0.316111513
0.317141586
0.318173551
0.319207406
0.320243146
0.321280769
0.322320271
0.323361648
0.324404897
0.325450014
0.326496995
0.327545838
0.328596538
0.329649091
0.330703494
0.331759743
0.332817834
0.333877764
0.334939528
0.336003122
0.337068542
0.338135785
0.339204847
0.340275722
0.341348408
0.342422899
0.343499192
0.344577282
0.345657166
0.346738838
0.347822295
0.348907531
0.349994543
0.351083326
0.352173876
0.353266188
0.354360257
0.355456078
0.356553648
0.357652961
0.358754012
0.359856797
0.360961312
0.36206755
0.363175507
0.364285179
0.365396559
0.366509644
0.367624428
0.368740906
0.369859072
0.370978923
0.372100452
0.373223653
0.374348523
0.375475056
0.376603245
0.377733086
0.378864574
0.379997702
0.381132465
0.382268858
0.383406875
0.384546511
0.385687759
0.386830614
0.38797507
0.389121122
0.390268763
0.391417988
0.392568791
0.393721165
0.394875105
0.396030605
0.397187658
0.398346259
0.399506401
0.400668078
0.401831284
0.402996012
0.404162257
0.405330012
0.40649927
0.407670026
0.408842271
0.410016001
0.411191209
0.412367887
0.41354603
0.41472563
0.415906681
0.417089177
0.418273109
0.419458472
0.420645259
0.421833463
0.423023076
0.424214092
0.425406504
0.426600304
0.427795487
0.428992043
0.430189967
0.431389251
0.432589888
0.43379187
0.43499519
0.436199841
0.437405816
0.438613106
0.439821705
0.441031605
0.442242798
0.443455276
0.444669033
0.44588406
0.44710035
0.448317894
0.449536686
0.450756717
0.451977979
0.453200464
0.454424165
0.455649074
0.456875182
0.458102481
0.459330964
0.460560621
0.461791446
0.463023429
0.464256563
0.465490839
0.466726248
0.467962783
0.469200436
0.470439196
0.471679057
0.472920009
0.474162044
0.475405154
0.476649329
0.477894562
0.479140843
0.480388163
0.481636514
0.482885887
0.484136273
0.485387664
0.48664005
