# Pulseq sequence file
# Created by MATLAB mr toolbox

[VERSION]
major 1
minor 5
revision 1

[DEFINITIONS]
AdcRasterTime 2e-06 
BlockDurationRaster 2e-05 
FOV 0.22 0.22 0.015 
GradientRasterTime 2e-05 
NumPartitions 1 
PeakRF 25 
RadiofrequencyRasterTime 2e-06 
RequiredExtensions ROTATIONS 
TR 0.18708 
TotalDuration 0.18708 

# Format of blocks:
# NUM DUR RF  GX  GY  GZ  ADC  EXT
[BLOCKS]
 1 500   1   0   0   0  0  0
 2 2500   0   0   0   0  0  0
 3 1000   2   0   0   0  0  0
 4 2500   0   0   0   0  0  0
 5 500   3   0   0   0  0  0
 6  50   0   0   0   1  0  0
 7 100   4   0   0   0  0  0
 8 258   0   2   3   4  1  1
 9  50   0   5   6   1  0  1
10 1000   2   0   0   0  0  0
11  50   0   0   0   1  0  0
12   5   0   0   0   0  0  0
13 100   5   0   0   0  0  0
14 258   0   2   3   4  2  1
15  50   0   5   6   1  0  1
16 100   6   0   0   0  0  0
17 258   0   2   3   4  3  1
18  50   0   5   6   1  0  1
19  25   0   0   0   0  0  0

# Format of RF events:
# id ampl. mag_id phase_id time_shape_id center delay freqPPM phasePPM freq phase use
# ..   Hz      ..       ..            ..     us    us     ppm  rad/MHz   Hz   rad  ..
# Field 'use' is the initial of: 
#   excitation refocusing inversion saturation preparation other undefined
[RF]
1           25 1 2 3 5000 0 0 0 0 0 e
2           25 1 2 4 10000 0 0 0 0 0 e
3           25 1 2 3 5000 0 0 0 0 3.14159 e
4      13.8889 1 2 5 1000 0 0 0 0 0 e
5      13.8889 1 2 5 1000 0 0 0 0 1.46608 e
6      13.8889 1 2 5 1000 0 0 0 0 4.39823 e

# Format of arbitrary gradients:
#   time_shape_id of 0 means default timing (stepping with grad_raster starting at 1/2 of grad_raster)
# id amplitude first last amp_shape_id time_shape_id delay
# ..      Hz/m  Hz/m Hz/m        ..         ..          us
[GRADIENTS]
2       550994            0      -493239 6 0 0
3       566952            0       297827 7 0 0
5      -493239      -493239            0 8 9 0
6       553521       297827            0 10 11 0

# Format of trapezoid gradients:
# id amplitude rise flat fall delay
# ..      Hz/m   us   us   us    us
[TRAP]
 1       909091 120  760 120   0
 4           -0  20    0  20   0

# Format of ADC events:
# id num dwell delay freqPPM phasePPM freq phase phase_id
# ..  ..    ns    us     ppm  rad/MHz   Hz   rad       ..
[ADC]
1 64 80000 0 0 0 0 0 0
2 64 80000 0 0 0 0 1.46608 0
3 64 80000 0 0 0 0 4.39823 0

# Format of extension lists:
# id type ref next_id
# next_id of 0 terminates the list
# Extension list is followed by extension specifications
[EXTENSIONS]
1 1 1 0

# Extension specification for rotation events:
# id RotQuat0 RotQuatX RotQuatY RotQuatZ
extension ROTATIONS 1
1  0.442471 0.547386 0.478963 0.524578

# Sequence Shapes
[SHAPES]

shape_id 1
num_samples 2
1
1

shape_id 2
num_samples 2
0
0

shape_id 3
num_samples 2
0
5000

shape_id 4
num_samples 2
0
10000

shape_id 5
num_samples 2
0
1000

shape_id 6
num_samples 258
0
0.0159017577
0.0129039526
0.00721964815
-0.000555666219
-0.00959439281
-0.0189096801
-0.0274431966
-0.0341607243
-0.0381477753
-0.0386973404
-0.0353823934
-0.0281068669
-0.0171304134
-0.0030642426
0.0131624502
0.0303636539
0.0471812937
0.0621876131
0.0739977025
0.0813837027
0.0833818351
0.0793836948
0.0692041819
0.0531199748
0.0318744763
0.00664754886
-0.0210090719
-0.0492672149
-0.0761426939
-0.0996328026
-0.117861458
-0.129221684
-0.132504975
-0.127007654
-0.112605686
-0.089791351
-0.0596677043
-0.0238996057
0.0153768564
0.055681717
0.0943476868
0.128696021
0.15622015
0.17476459
0.182686575
0.178988649
0.163412075
0.136483305
0.0995087281
0.054516324
0.00414641493
-0.0485027288
-0.100065442
-0.147123659
-0.18643262
-0.215142446
-0.231000561
-0.232520816
-0.21910699
-0.191121051
-0.149890002
-0.0976490532
-0.0374230615
0.0271476601
0.0920271984
0.153036293
0.206121219
0.247622025
0.274522437
0.284664498
0.276912921
0.251257059
0.208842191
0.151926287
0.0837631939
0.00841804042
-0.0694747604
-0.144996537
-0.213254883
-0.269700083
-0.310426997
-0.332442469
-0.33388008
-0.314147139
-0.273992819
-0.215491286
-0.141938999
-0.057670948
0.0321940704
0.122064215
0.206222553
0.279190548
0.336083981
0.372938227
0.386981325
0.376836203
0.342637627
0.286054661
0.210215328
0.119536366
0.019467189
-0.0838372131
-0.183894803
-0.274303192
-0.349148981
-0.403393599
-0.433210512
-0.436251362
-0.411822718
-0.360960551
-0.286395844
-0.192411617
-0.0845985776
0.0304767652
0.145671869
0.253711484
0.347647016
0.421302932
0.469681562
0.48929982
0.478435311
0.437264669
0.367883596
0.274205412
0.161742647
0.0372836878
-0.0915166052
-0.216607654
-0.330046345
-0.42450119
-0.493725469
-0.532968878
-0.539300622
-0.511822157
-0.451754451
-0.362392374
-0.248927192
-0.118146482
0.0219712796
0.162743275
0.295320396
0.411243446
0.502982532
0.56442528
0.591282272
0.581382908
0.534841509
0.454081358
0.343713291
0.21027453
0.0618424364
-0.0924540718
-0.242995902
-0.380273453
-0.49548718
-0.581111137
-0.631383449
-0.642691796
-0.61382827
-0.546095862
-0.443258013
-0.311332468
-0.15824051
0.00666806134
0.173185764
0.330879243
0.469742947
0.580833715
0.656846051
0.692591115
0.685348113
0.635064445
0.544390247
0.418543231
0.26501038
0.0931034407
-0.0866054851
-0.262934028
-0.424785377
-0.561846526
-0.665245023
-0.728122423
-0.746087417
-0.71751883
-0.643697765
-0.528758736
-0.379460915
-0.20479195
-0.0154274976
0.17692107
0.360230946
0.522919353
0.654575237
0.746624976
0.792889554
0.789997095
0.737623299
0.638542955
0.498487359
0.325814646
0.131011871
-0.0739415499
-0.276310422
-0.4633951
-0.623328389
-0.745828004
-0.822856921
-0.849149225
-0.822567156
-0.744265299
-0.618649773
-0.453133023
-0.257697678
-0.0442950544
0.17388549
0.383231693
0.570557651
0.723934203
0.833448177
0.891842177
0.894993688
0.842201977
0.736263049
0.583326036
0.39253809
0.175498144
-0.054447876
-0.283027605
-0.495928092
-0.679691992
-0.822567971
-0.915261598
-0.951538794
-0.928642707
-0.84749629
-0.712676042
-0.532156612
-0.316840328
-0.0798993333
0.164030014
0.399751224
0.612454391
0.788646573
0.917007384
0.989115573
1
0.948479045
0.837265465
0.672828234
0.465018041
0.226478033
-0.0281250247
-0.28300243
-0.522222641
-0.730707075
-0.895180372
-0.895180372

shape_id 7
num_samples 258
0
0.00394609953
0.0113475999
0.017322768
0.0210694682
0.0219957101
0.0197787788
0.014401784
0.00616433066
-0.00433395126
-0.0162361267
-0.028493932
-0.0399521161
-0.0494447106
-0.055895724
-0.0584162452
-0.0563900425
-0.0495404478
-0.0379725937
-0.0221868188
-0.00306116887
0.0181967645
0.0401260732
0.0611120195
0.0795020554
0.0937301917
0.102440637
0.10460139
0.0995988957
0.0873059868
0.0681170384
0.0429464469
0.0131891041
-0.0193557543
-0.0525932499
-0.0842675503
-0.112113894
-0.134017771
-0.148170214
-0.153208068
-0.148328794
-0.133370785
-0.108852327
-0.0759649709
-0.0365201483
0.0071489483
0.0523250143
0.0960757168
0.135443692
0.167645165
0.190263926
0.201427305
0.199951598
0.185446108
0.158367434
0.120018765
0.0724925094
0.018558347
-0.0384974535
-0.0950721891
-0.147474156
-0.19216301
-0.225987436
-0.246404262
-0.251663942
-0.240949189
-0.214456272
-0.173412031
-0.120023733
-0.0573632641
0.0108084734
0.0802670015
0.146586046
0.205419438
0.252785184
0.285333197
0.300578778
0.297085759
0.274586164
0.23402703
0.177539623
0.108331203
0.0305045694
-0.0511845829
-0.131618176
-0.205636395
-0.268368375
-0.315551761
-0.343820223
-0.350939667
-0.335976759
-0.29938747
-0.243018216
-0.170017698
-0.0846632769
0.0078887251
0.101914249
0.191475508
0.270795872
0.334631975
0.378619092
0.399567123
0.39568724
0.366733346
0.314047677
0.240505823
0.150362819
0.0490083206
-0.057355127
-0.162091569
-0.25854565
-0.34046532
-0.402406417
-0.440092967
-0.450709454
-0.433105242
-0.387896618
-0.317458211
-0.225802469
-0.118353007
-0.00162450149
0.117172046
0.23057475
0.331339493
0.41290235
0.469806279
0.498064405
0.495435816
0.46159498
0.398182386
0.308731368
0.198473876
0.0740356713
-0.0569613599
-0.186365941
-0.306004621
-0.408197894
-0.486252662
-0.534899464
-0.550646
-0.532023339
-0.479707711
-0.396508408
-0.287220686
-0.158351102
-0.0177308997
0.125959629
0.263726939
0.386827112
0.487320591
0.55858359
0.595743282
0.596008255
0.558871971
0.486174729
0.382018389
0.252537325
0.105538265
-0.0499699429
-0.204328321
-0.3478277
-0.471319349
-0.56679789
-0.62791938
-0.65042109
-0.632415288
-0.574537004
-0.47993466
-0.354102312
-0.204562169
-0.0404156406
0.128210341
0.29078806
0.437046274
0.557618962
0.644644594
0.692277613
0.69707891
0.658259342
0.577759301
0.460157492
0.312412765
0.143453397
-0.0363619982
-0.215879411
-0.383841318
-0.529592594
-0.643756176
-0.718835668
-0.749706193
-0.733961433
-0.672093519
-0.5674927
-0.426264928
-0.256876944
-0.0696493861
0.123871772
0.311627195
0.481795658
0.623538209
0.727688167
0.787343055
0.798320315
0.759446794
0.672662192
0.542928136
0.377946688
0.187704109
-0.0161331595
-0.220933786
-0.413884282
-0.582790648
-0.716848809
-0.807335151
-0.848173072
-0.83633881
-0.772079579
-0.658928581
-0.503514055
-0.31517247
-0.105388326
0.112905865
0.326126771
0.520885458
0.684828048
0.807419045
0.880617659
0.899403781
0.862119262
0.770601487
0.630099023
0.448972748
0.238199317
0.0107064024
-0.21942007
-0.437808078
-0.63069706
-0.785804807
-0.893109104
-0.945494381
-0.939221734
-0.874191341
-0.753979128
-0.585643496
-0.379312308
-0.147574239
0.0952890101
0.334182805
0.55413775
0.741247633
0.88354838
0.971782467
1
0.965957493
0.871287766
0.721428503
0.525312042
0.525312042

shape_id 8
num_samples 3
1
-0.474529101
-0

shape_id 9
num_samples 3
0
5
7

shape_id 10
num_samples 4
0.538058038
-1
-1
0

shape_id 11
num_samples 4
0
6
7
11


[SIGNATURE]
# This is the hash of the Pulseq file, calculated right before the [SIGNATURE]
# section was added. It can be reproduced/verified with md5sum if the file
# trimmed to the position right above [SIGNATURE]. The new line character
# preceding [SIGNATURE] BELONGS to the signature (and needs to be sripped away
# for recalculating/verification)
Type md5
Hash 3f9ca79081151c04f425b271d16d20e0
