# Pulseq sequence file
# Created by MATLAB mr toolbox

[VERSION]
major 1
minor 5
revision 1

[DEFINITIONS]
AdcRasterTime 2e-06 
BlockDurationRaster 2e-05 
FOV 0.22 0.22 0.015 
GradientRasterTime 2e-05 
NumPartitions 3 
PeakRF 25 
RadiofrequencyRasterTime 2e-06 
TR 0.07472 
TotalDuration 0.22416 

# Format of blocks:
# NUM DUR RF  GX  GY  GZ  ADC  EXT
[BLOCKS]
 1 1000   1   0   0   0  0  0
 2  50   0   0   0   1  0  0
 3   5   0   0   0   0  0  0
 4 100   2   0   0   0  0  0
 5 182   0   2   3   4  1  0
 6  50   0   0   0   1  0  0
 7 100   3   0   0   0  0  0
 8 182   0   5   6   4  2  0
 9  50   0   0   0   1  0  0
10 100   4   0   0   0  0  0
11 182   0   7   8   4  3  0
12  50   0   0   0   1  0  0
13 100   5   0   0   0  0  0
14 182   0   9  10   4  4  0
15  50   0   0   0   1  0  0
16 100   6   0   0   0  0  0
17 182   0  11  12   4  5  0
18  50   0   0   0   1  0  0
19 100   7   0   0   0  0  0
20 182   0  13  14   4  6  0
21  50   0   0   0   1  0  0
22 100   8   0   0   0  0  0
23 182   0  15  16   4  7  0
24  50   0   0   0   1  0  0
25 100   4   0   0   0  0  0
26 182   0  17  18   4  3  0
27  50   0   0   0   1  0  0
28  25   0   0   0   0  0  0
29 1000   1   0   0   0  0  0
30  50   0   0   0   1  0  0
31   5   0   0   0   0  0  0
32 100   6   0   0   0  0  0
33 182   0  19  20  21  5  0
34  50   0   0   0   1  0  0
35 100   9   0   0   0  0  0
36 182   0  22  23  21  8  0
37  50   0   0   0   1  0  0
38 100   4   0   0   0  0  0
39 182   0  24  25  21  3  0
40  50   0   0   0   1  0  0
41 100  10   0   0   0  0  0
42 182   0  26  27  21  9  0
43  50   0   0   0   1  0  0
44 100   2   0   0   0  0  0
45 182   0  28  29  21  1  0
46  50   0   0   0   1  0  0
47 100   6   0   0   0  0  0
48 182   0  30  31  21  5  0
49  50   0   0   0   1  0  0
50 100  11   0   0   0  0  0
51 182   0  32  33  21 10  0
52  50   0   0   0   1  0  0
53 100  12   0   0   0  0  0
54 182   0  34  35  21 11  0
55  50   0   0   0   1  0  0
56  25   0   0   0   0  0  0
57 1000   1   0   0   0  0  0
58  50   0   0   0   1  0  0
59   5   0   0   0   0  0  0
60 100   3   0   0   0  0  0
61 182   0  36  37  38  2  0
62  50   0   0   0   1  0  0
63 100   7   0   0   0  0  0
64 182   0  39  40  38  6  0
65  50   0   0   0   1  0  0
66 100   5   0   0   0  0  0
67 182   0  41  42  38  4  0
68  50   0   0   0   1  0  0
69 100  11   0   0   0  0  0
70 182   0  43  44  38 10  0
71  50   0   0   0   1  0  0
72 100   7   0   0   0  0  0
73 182   0  45  46  38  6  0
74  50   0   0   0   1  0  0
75 100  13   0   0   0  0  0
76 182   0  47  48  38 12  0
77  50   0   0   0   1  0  0
78 100   4   0   0   0  0  0
79 182   0  49  50  38  3  0
80  50   0   0   0   1  0  0
81 100  11   0   0   0  0  0
82 182   0  51  52  38 10  0
83  50   0   0   0   1  0  0
84  25   0   0   0   0  0  0

# Format of RF events:
# id ampl. mag_id phase_id time_shape_id center delay freqPPM phasePPM freq phase use
# ..   Hz      ..       ..            ..     us    us     ppm  rad/MHz   Hz   rad  ..
# Field 'use' is the initial of: 
#   excitation refocusing inversion saturation preparation other undefined
[RF]
1           25 1 2 3 10000 0 0 0 0 0 e
2      13.8889 1 2 4 1000 0 0 0 0 1.46608 e
3      13.8889 1 2 4 1000 0 0 0 0 4.39823 e
4      13.8889 1 2 4 1000 0 0 0 0 2.51327 e
5      13.8889 1 2 4 1000 0 0 0 0 2.0944 e
6      13.8889 1 2 4 1000 0 0 0 0 3.14159 e
7      13.8889 1 2 4 1000 0 0 0 0 5.65487 e
8      13.8889 1 2 4 1000 0 0 0 0 3.35103 e
9      13.8889 1 2 4 1000 0 0 0 0 5.23599 e
10      13.8889 1 2 4 1000 0 0 0 0 1.25664 e
11      13.8889 1 2 4 1000 0 0 0 0 0 e
12      13.8889 1 2 4 1000 0 0 0 0 4.60767 e
13      13.8889 1 2 4 1000 0 0 0 0 0.20944 e

# Format of arbitrary gradients:
#   time_shape_id of 0 means default timing (stepping with grad_raster starting at 1/2 of grad_raster)
# id amplitude first last amp_shape_id time_shape_id delay
# ..      Hz/m  Hz/m Hz/m        ..         ..          us
[GRADIENTS]
2      -858931            0            0 5 0 0
3            0            0            0 6 0 0
4       170455           -0           -0 7 8 240
5       633372            0            0 5 0 0
6      -580175            0            0 5 0 0
7     -75159.5            0            0 5 0 0
8       855636            0            0 5 0 0
9      -522527            0            0 5 0 0
10      -681710            0            0 5 0 0
11       845778            0            0 5 0 0
12       149742            0            0 5 0 0
13      -724818            0            0 5 0 0
14       460871            0            0 5 0 0
15       223176            0            0 5 0 0
16      -829430            0            0 5 0 0
17       395679            0            0 5 0 0
18       762365            0            0 5 0 0
19      -806720            0            0 5 0 0
20      -294898            0            0 5 0 0
21            0            0            0 9 8 240
22       794064            0            0 5 0 0
23      -327452            0            0 5 0 0
24      -364358            0            0 5 0 0
25       777821            0            0 5 0 0
26      -256712            0            0 5 0 0
27      -819672            0            0 5 0 0
28       742955            0            0 5 0 0
29       431023            0            0 5 0 0
30      -838991            0            0 5 0 0
31       184004            0            0 5 0 0
32       494380            0            0 5 0 0
33      -702389            0            0 5 0 0
34       109883            0            0 5 0 0
35       851873            0            0 5 0 0
36      -656435            0            0 5 0 0
37      -553946            0            0 5 0 0
38      -170455            0            0 7 8 240
39       858221            0            0 5 0 0
40     -34919.8            0            0 5 0 0
41      -609261            0            0 5 0 0
42       605445            0            0 5 0 0
43      40311.4            0            0 5 0 0
44      -857985            0            0 5 0 0
45       549810            0            0 5 0 0
46       659903            0            0 5 0 0
47      -851166            0            0 5 0 0
48      -115233            0            0 5 0 0
49       705482            0            0 5 0 0
50      -489957            0            0 5 0 0
51      -189271            0            0 5 0 0
52       837818            0            0 5 0 0

# Format of trapezoid gradients:
# id amplitude rise flat fall delay
# ..      Hz/m   us   us   us    us
[TRAP]
 1       952381 160  680 160   0

# Format of ADC events:
# id num dwell delay freqPPM phasePPM freq phase phase_id
# ..  ..    ns    us     ppm  rad/MHz   Hz   rad       ..
[ADC]
1 64 40000 340 0 0 0 1.46608 0
2 64 40000 340 0 0 0 4.39823 0
3 64 40000 340 0 0 0 2.51327 0
4 64 40000 340 0 0 0 2.0944 0
5 64 40000 340 0 0 0 3.14159 0
6 64 40000 340 0 0 0 5.65487 0
7 64 40000 340 0 0 0 3.35103 0
8 64 40000 340 0 0 0 5.23599 0
9 64 40000 340 0 0 0 1.25664 0
10 64 40000 340 0 0 0 0 0
11 64 40000 340 0 0 0 4.60767 0
12 64 40000 340 0 0 0 0.20944 0

# Sequence Shapes
[SHAPES]

shape_id 1
num_samples 2
1
1

shape_id 2
num_samples 2
0
0

shape_id 3
num_samples 2
0
10000

shape_id 4
num_samples 2
0
1000

shape_id 5
num_samples 162
0.0666667
0.1333333
0.1333333
0
0.1333334
0.1333333
0.1333333
0
0.1333334
0.1333333
0
-0.1333333
-0.1333334
-0.1333333
-0.1333333
0
-0.1333334
-0.1333333
-0.1333333
0
-0.1328166
-0.0661498
0
0
125
0.0661498
0.1328166
0.1333333
0.1333333
0
0.1333334
0.1333333
0.1333333
0
0.1333334
0.1333333
0
-0.1333333
-0.1333334
-0.1333333
-0.1333333
0
-0.1333334
-0.1333333
-0.1333333
0

shape_id 6
num_samples 162
0
0
160

shape_id 7
num_samples 6
-0
1
-0
-0
-1
-0

shape_id 8
num_samples 6
0
2
4
166
168
170

shape_id 9
num_samples 6
0
0
4


[SIGNATURE]
# This is the hash of the Pulseq file, calculated right before the [SIGNATURE]
# section was added. It can be reproduced/verified with md5sum if the file
# trimmed to the position right above [SIGNATURE]. The new line character
# preceding [SIGNATURE] BELONGS to the signature (and needs to be sripped away
# for recalculating/verification)
Type md5
Hash a43581660707eaec295ca980953de502
