# Pulseq sequence file
# Created by MATLAB mr toolbox

[VERSION]
major 1
minor 5
revision 1

[DEFINITIONS]
AdcRasterTime 2e-06 
BlockDurationRaster 2e-05 
FOV 0.22 0.22 0.015 
GradientRasterTime 2e-05 
NumPartitions 3 
PeakRF 25 
RadiofrequencyRasterTime 2e-06 
TR 0.03792 
TotalDuration 0.11376 

# Format of blocks:
# NUM DUR RF  GX  GY  GZ  ADC  EXT
[BLOCKS]
 1 1000   1   0   0   0  0  0
 2  50   0   0   0   1  0  0
 3   5   0   0   0   0  0  0
 4 100   2   0   0   0  0  0
 5 258   0   2   3   4  1  0
 6  50   0   5   6   1  0  0
 7 100   3   0   0   0  0  0
 8 258   0   7   8   4  2  0
 9  50   0   9  10   1  0  0
10  25   0   0   0   0  0  0
11 1000   1   0   0   0  0  0
12  50   0   0   0   1  0  0
13   5   0   0   0   0  0  0
14 100   4   0   0   0  0  0
15 258   0  11  12  13  3  0
16  50   0  14  15   1  0  0
17 100   5   0   0   0  0  0
18 258   0  16  17  13  4  0
19  50   0  18  19   1  0  0
20  25   0   0   0   0  0  0
21 1000   1   0   0   0  0  0
22  50   0   0   0   1  0  0
23   5   0   0   0   0  0  0
24 100   6   0   0   0  0  0
25 258   0  20  21  22  5  0
26  50   0  23  24   1  0  0
27 100   7   0   0   0  0  0
28 258   0  25  26  22  6  0
29  50   0  27  28   1  0  0
30  25   0   0   0   0  0  0

# Format of RF events:
# id ampl. mag_id phase_id time_shape_id center delay freqPPM phasePPM freq phase use
# ..   Hz      ..       ..            ..     us    us     ppm  rad/MHz   Hz   rad  ..
# Field 'use' is the initial of: 
#   excitation refocusing inversion saturation preparation other undefined
[RF]
1           25 1 2 3 10000 0 0 0 0 0 e
2      13.8889 1 2 4 1000 0 0 0 0 1.46608 e
3      13.8889 1 2 4 1000 0 0 0 0 4.39823 e
4      13.8889 1 2 4 1000 0 0 0 0 2.51327 e
5      13.8889 1 2 4 1000 0 0 0 0 2.0944 e
6      13.8889 1 2 4 1000 0 0 0 0 3.14159 e
7      13.8889 1 2 4 1000 0 0 0 0 5.65487 e

# Format of arbitrary gradients:
#   time_shape_id of 0 means default timing (stepping with grad_raster starting at 1/2 of grad_raster)
# id amplitude first last amp_shape_id time_shape_id delay
# ..      Hz/m  Hz/m Hz/m        ..         ..          us
[GRADIENTS]
2       550994            0      -493239 5 0 0
3       566952            0       297827 6 0 0
5      -493239      -493239            0 7 8 0
6       664230       297827            0 9 10 0
7       571668            0      -504545 11 0 0
8       556607            0      -278244 12 0 0
9      -665705      -504545            0 13 14 0
10      -358291      -278244            0 15 16 0
11      -561929            0     -11305.9 17 0 0
12       576071            0      -576071 18 0 0
14      -582997     -11305.9            0 19 20 0
15      -576071      -576071            0 21 14 0
16      -550994            0       493239 22 0 0
17      -566952            0      -297827 23 0 0
18       493239       493239            0 24 8 0
19      -664230      -297827            0 25 10 0
20      -571668            0       504545 26 0 0
21      -556607            0       278244 27 0 0
23       665705       504545            0 28 14 0
24       358291       278244            0 29 16 0
25       561929            0      11305.9 30 0 0
26      -576071            0       576071 31 0 0
27       582997      11305.9            0 32 20 0
28       576071       576071            0 33 14 0

# Format of trapezoid gradients:
# id amplitude rise flat fall delay
# ..      Hz/m   us   us   us    us
[TRAP]
 1       909091 120  760 120   0
 4       170455  40    0  40   0
13           -0  40    0  40   0
22      -170455  40    0  40   0

# Format of ADC events:
# id num dwell delay freqPPM phasePPM freq phase phase_id
# ..  ..    ns    us     ppm  rad/MHz   Hz   rad       ..
[ADC]
1 64 80000 0 0 0 0 1.46608 0
2 64 80000 0 0 0 0 4.39823 0
3 64 80000 0 0 0 0 2.51327 0
4 64 80000 0 0 0 0 2.0944 0
5 64 80000 0 0 0 0 3.14159 0
6 64 80000 0 0 0 0 5.65487 0

# Sequence Shapes
[SHAPES]

shape_id 1
num_samples 2
1
1

shape_id 2
num_samples 2
0
0

shape_id 3
num_samples 2
0
10000

shape_id 4
num_samples 2
0
1000

shape_id 5
num_samples 258
0
0.0159017577
0.0129039526
0.00721964815
-0.000555666219
-0.00959439281
-0.0189096801
-0.0274431966
-0.0341607243
-0.0381477753
-0.0386973404
-0.0353823934
-0.0281068669
-0.0171304134
-0.0030642426
0.0131624502
0.0303636539
0.0471812937
0.0621876131
0.0739977025
0.0813837027
0.0833818351
0.0793836948
0.0692041819
0.0531199748
0.0318744763
0.00664754886
-0.0210090719
-0.0492672149
-0.0761426939
-0.0996328026
-0.117861458
-0.129221684
-0.132504975
-0.127007654
-0.112605686
-0.089791351
-0.0596677043
-0.0238996057
0.0153768564
0.055681717
0.0943476868
0.128696021
0.15622015
0.17476459
0.182686575
0.178988649
0.163412075
0.136483305
0.0995087281
0.054516324
0.00414641493
-0.0485027288
-0.100065442
-0.147123659
-0.18643262
-0.215142446
-0.231000561
-0.232520816
-0.21910699
-0.191121051
-0.149890002
-0.0976490532
-0.0374230615
0.0271476601
0.0920271984
0.153036293
0.206121219
0.247622025
0.274522437
0.284664498
0.276912921
0.251257059
0.208842191
0.151926287
0.0837631939
0.00841804042
-0.0694747604
-0.144996537
-0.213254883
-0.269700083
-0.310426997
-0.332442469
-0.33388008
-0.314147139
-0.273992819
-0.215491286
-0.141938999
-0.057670948
0.0321940704
0.122064215
0.206222553
0.279190548
0.336083981
0.372938227
0.386981325
0.376836203
0.342637627
0.286054661
0.210215328
0.119536366
0.019467189
-0.0838372131
-0.183894803
-0.274303192
-0.349148981
-0.403393599
-0.433210512
-0.436251362
-0.411822718
-0.360960551
-0.286395844
-0.192411617
-0.0845985776
0.0304767652
0.145671869
0.253711484
0.347647016
0.421302932
0.469681562
0.48929982
0.478435311
0.437264669
0.367883596
0.274205412
0.161742647
0.0372836878
-0.0915166052
-0.216607654
-0.330046345
-0.42450119
-0.493725469
-0.532968878
-0.539300622
-0.511822157
-0.451754451
-0.362392374
-0.248927192
-0.118146482
0.0219712796
0.162743275
0.295320396
0.411243446
0.502982532
0.56442528
0.591282272
0.581382908
0.534841509
0.454081358
0.343713291
0.21027453
0.0618424364
-0.0924540718
-0.242995902
-0.380273453
-0.49548718
-0.581111137
-0.631383449
-0.642691796
-0.61382827
-0.546095862
-0.443258013
-0.311332468
-0.15824051
0.00666806134
0.173185764
0.330879243
0.469742947
0.580833715
0.656846051
0.692591115
0.685348113
0.635064445
0.544390247
0.418543231
0.26501038
0.0931034407
-0.0866054851
-0.262934028
-0.424785377
-0.561846526
-0.665245023
-0.728122423
-0.746087417
-0.71751883
-0.643697765
-0.528758736
-0.379460915
-0.20479195
-0.0154274976
0.17692107
0.360230946
0.522919353
0.654575237
0.746624976
0.792889554
0.789997095
0.737623299
0.638542955
0.498487359
0.325814646
0.131011871
-0.0739415499
-0.276310422
-0.4633951
-0.623328389
-0.745828004
-0.822856921
-0.849149225
-0.822567156
-0.744265299
-0.618649773
-0.453133023
-0.257697678
-0.0442950544
0.17388549
0.383231693
0.570557651
0.723934203
0.833448177
0.891842177
0.894993688
0.842201977
0.736263049
0.583326036
0.39253809
0.175498144
-0.054447876
-0.283027605
-0.495928092
-0.679691992
-0.822567971
-0.915261598
-0.951538794
-0.928642707
-0.84749629
-0.712676042
-0.532156612
-0.316840328
-0.0798993333
0.164030014
0.399751224
0.612454391
0.788646573
0.917007384
0.989115573
1
0.948479045
0.837265465
0.672828234
0.465018041
0.226478033
-0.0281250247
-0.28300243
-0.522222641
-0.730707075
-0.895180372
-0.895180372

shape_id 6
num_samples 258
0
0.00394609953
0.0113475999
0.017322768
0.0210694682
0.0219957101
0.0197787788
0.014401784
0.00616433066
-0.00433395126
-0.0162361267
-0.028493932
-0.0399521161
-0.0494447106
-0.055895724
-0.0584162452
-0.0563900425
-0.0495404478
-0.0379725937
-0.0221868188
-0.00306116887
0.0181967645
0.0401260732
0.0611120195
0.0795020554
0.0937301917
0.102440637
0.10460139
0.0995988957
0.0873059868
0.0681170384
0.0429464469
0.0131891041
-0.0193557543
-0.0525932499
-0.0842675503
-0.112113894
-0.134017771
-0.148170214
-0.153208068
-0.148328794
-0.133370785
-0.108852327
-0.0759649709
-0.0365201483
0.0071489483
0.0523250143
0.0960757168
0.135443692
0.167645165
0.190263926
0.201427305
0.199951598
0.185446108
0.158367434
0.120018765
0.0724925094
0.018558347
-0.0384974535
-0.0950721891
-0.147474156
-0.19216301
-0.225987436
-0.246404262
-0.251663942
-0.240949189
-0.214456272
-0.173412031
-0.120023733
-0.0573632641
0.0108084734
0.0802670015
0.146586046
0.205419438
0.252785184
0.285333197
0.300578778
0.297085759
0.274586164
0.23402703
0.177539623
0.108331203
0.0305045694
-0.0511845829
-0.131618176
-0.205636395
-0.268368375
-0.315551761
-0.343820223
-0.350939667
-0.335976759
-0.29938747
-0.243018216
-0.170017698
-0.0846632769
0.0078887251
0.101914249
0.191475508
0.270795872
0.334631975
0.378619092
0.399567123
0.39568724
0.366733346
0.314047677
0.240505823
0.150362819
0.0490083206
-0.057355127
-0.162091569
-0.25854565
-0.34046532
-0.402406417
-0.440092967
-0.450709454
-0.433105242
-0.387896618
-0.317458211
-0.225802469
-0.118353007
-0.00162450149
0.117172046
0.23057475
0.331339493
0.41290235
0.469806279
0.498064405
0.495435816
0.46159498
0.398182386
0.308731368
0.198473876
0.0740356713
-0.0569613599
-0.186365941
-0.306004621
-0.408197894
-0.486252662
-0.534899464
-0.550646
-0.532023339
-0.479707711
-0.396508408
-0.287220686
-0.158351102
-0.0177308997
0.125959629
0.263726939
0.386827112
0.487320591
0.55858359
0.595743282
0.596008255
0.558871971
0.486174729
0.382018389
0.252537325
0.105538265
-0.0499699429
-0.204328321
-0.3478277
-0.471319349
-0.56679789
-0.62791938
-0.65042109
-0.632415288
-0.574537004
-0.47993466
-0.354102312
-0.204562169
-0.0404156406
0.128210341
0.29078806
0.437046274
0.557618962
0.644644594
0.692277613
0.69707891
0.658259342
0.577759301
0.460157492
0.312412765
0.143453397
-0.0363619982
-0.215879411
-0.383841318
-0.529592594
-0.643756176
-0.718835668
-0.749706193
-0.733961433
-0.672093519
-0.5674927
-0.426264928
-0.256876944
-0.0696493861
0.123871772
0.311627195
0.481795658
0.623538209
0.727688167
0.787343055
0.798320315
0.759446794
0.672662192
0.542928136
0.377946688
0.187704109
-0.0161331595
-0.220933786
-0.413884282
-0.582790648
-0.716848809
-0.807335151
-0.848173072
-0.83633881
-0.772079579
-0.658928581
-0.503514055
-0.31517247
-0.105388326
0.112905865
0.326126771
0.520885458
0.684828048
0.807419045
0.880617659
0.899403781
0.862119262
0.770601487
0.630099023
0.448972748
0.238199317
0.0107064024
-0.21942007
-0.437808078
-0.63069706
-0.785804807
-0.893109104
-0.945494381
-0.939221734
-0.874191341
-0.753979128
-0.585643496
-0.379312308
-0.147574239
0.0952890101
0.334182805
0.55413775
0.741247633
0.88354838
0.971782467
1
0.965957493
0.871287766
0.721428503
0.525312042
0.525312042

shape_id 7
num_samples 3
1
-0.474527683
-0

shape_id 8
num_samples 3
0
5
7

shape_id 9
num_samples 3
0.448378799
-1
0

shape_id 10
num_samples 3
0
6
10

shape_id 11
num_samples 258
0
0.00427410912
-0.00352758735
-0.0113989065
-0.0183639331
-0.0235153846
-0.0261005065
-0.0255947636
-0.0217570728
-0.0146617366
-0.0047040396
0.00742147701
0.0207688875
0.0342116337
0.0465310151
0.0565157683
0.0630650645
0.0652867989
0.062583207
0.0547166074
0.0418494095
0.0245543277
0.00379290598
-0.0191371921
-0.04268329
-0.0651421317
-0.0847806588
-0.0999646968
-0.109286248
-0.111679877
-0.106519165
-0.093685352
-0.0736020534
-0.0472321962
-0.016035916
0.0181090723
0.053020372
0.08635029
0.115742815
0.138997744
0.154230651
0.160017322
0.15551197
0.140530033
0.115588548
0.0818997715
0.0413168503
-0.0037663831
-0.0505562015
-0.0960321036
-0.137141536
-0.171003682
-0.195108771
-0.207499269
-0.206920113
-0.19292688
-0.165943291
-0.127262613
-0.0789911569
-0.0239358821
0.0345580408
0.0928103748
0.147037332
0.193596898
0.229232095
0.251295993
0.257943104
0.248273577
0.222419393
0.181565341
0.127901626
0.0645094548
-0.00481466519
-0.0757859646
-0.143896234
-0.204700066
-0.254104342
-0.288642163
-0.305712975
-0.303772434
-0.282458452
-0.242643728
-0.186409619
-0.116941239
-0.0383487729
0.0445750757
0.126647241
0.20261825
0.267507722
0.316929997
0.34738865
0.356520214
0.343270336
0.307989584
0.252441073
0.179717612
0.0940718444
0.000668564413
-0.0947264438
-0.186102308
-0.26758175
-0.333798688
-0.380250535
-0.403602115
-0.401920827
-0.374826687
-0.323546082
-0.25086401
-0.160975996
-0.0592473536
0.0481065101
0.154399726
0.252892351
0.337217573
0.401792687
0.442187317
0.455424711
0.440195741
0.396970521
0.327998822
0.237197409
0.129929616
0.0126894317
-0.10729136
-0.222489236
-0.325560667
-0.409809964
-0.469623439
-0.500841785
-0.50104606
-0.469737802
-0.408400225
-0.320434808
-0.210975438
-0.0865900594
0.0451129065
0.17594983
0.297670379
0.402477668
0.483527259
0.535373116
0.5543315
0.53873862
0.489084238
0.408011049
0.300178004
0.171994387
0.0312396639
-0.113408362
-0.252908521
-0.378421372
-0.481869121
-0.556454892
-0.59710802
-0.60082626
-0.566891961
-0.496946933
-0.394919467
-0.266806246
-0.120321062
0.0355691395
0.191193026
0.33677488
0.463048612
0.561847213
0.626630186
0.652914927
0.638583705
0.584045388
0.492240005
0.368483985
0.220163948
0.0562965929
-0.113019167
-0.277224536
-0.425959294
-0.549715315
-0.640443934
-0.692078392
-0.700937506
-0.665983816
-0.588918352
-0.474104227
-0.328322
-0.160370357
0.0194644542
0.200038463
0.370040532
0.518700851
0.636472979
0.715646263
0.750849381
0.739412208
0.681561757
0.580438163
0.441927843
0.274322437
0.087823183
-0.106079684
-0.295314792
-0.467981128
-0.613096398
-0.721295193
-0.785432603
-0.801054416
-0.766703066
-0.684038488
-0.557764499
-0.39536344
-0.206653883
-0.00319749764
0.202409149
0.397314463
0.569215102
0.707132445
0.802113259
0.847809886
0.840902402
0.781334799
0.672348655
0.520310312
0.334340534
0.125768082
-0.0925601121
-0.307070174
-0.5043052
-0.671769389
-0.798719432
-0.876853075
-0.90085075
-0.868735018
-0.782023695
-0.645665264
-0.467758733
-0.259073651
-0.032398647
0.198242108
0.418456549
0.614382768
0.773561459
0.885727833
0.943472701
0.942730202
0.88306017
0.767705734
0.603420709
0.400075683
0.170065695
-0.0724450112
-0.312395157
-0.534761816
-0.72550093
-0.872434083
-0.966025537
-1
-0.971761157
-0.882583187
-0.882583187

shape_id 12
num_samples 258
0
0.0156421808
0.0168417167
0.0150117155
0.0102541638
0.00297705835
-0.00613793658
-0.0161921233
-0.0261462876
-0.0349110584
-0.0414438911
-0.0448448256
-0.0444431429
-0.0398676217
-0.0310942527
-0.0184669119
-0.00268851551
0.0152175741
0.0339738084
0.0521380956
0.0682106187
0.0807501192
0.0884909859
0.0904521594
0.0860292031
0.0750618833
0.0578711925
0.0352618312
0.00848859725
-0.0208122457
-0.0507229401
-0.0791694379
-0.104063683
-0.123453292
-0.135668102
-0.1394529
-0.134076285
-0.119406995
-0.0959510064
-0.0648453279
-0.0278072871
0.0129587736
0.0548924272
0.0952379606
0.131224944
0.160256768
0.180094416
0.18902266
0.185986656
0.170688608
0.143636527
0.106140204
0.0602529125
0.00866103301
-0.045472609
-0.0987026006
-0.147520112
-0.188583448
-0.21894487
-0.236258411
-0.238954226
-0.22636687
-0.198807632
-0.157574477
-0.10489719
-0.0438194898
0.021975815
0.0883886759
0.151157298
0.206131361
0.249545462
0.278274833
0.290056075
0.283657554
0.25898701
0.217127766
0.160299386
0.0917434905
0.0155403404
-0.0636335206
-0.140792215
-0.210954463
-0.269464723
-0.312300889
-0.336348248
-0.339621204
-0.321417227
-0.282391559
-0.224546107
-0.15113137
-0.0664658509
0.0243171425
0.115580534
0.201533507
0.276598789
0.33577392
0.374963121
0.391257853
0.383146997
0.350641773
0.295305695
0.22018581
0.129647708
0.029123056
-0.0752158335
-0.176834929
-0.269247641
-0.346428596
-0.403205652
-0.43560469
-0.441124314
-0.418921651
-0.36989583
-0.296661999
-0.203415655
-0.0956940371
0.0199519657
0.136355993
0.246180296
0.342378197
0.418645794
0.469833978
0.49229389
0.484132783
0.445362555
0.377929824
0.285623738
0.173865471
0.049390934
-0.0801548121
-0.206687032
-0.322185865
-0.419204456
-0.491348482
-0.533696242
-0.543131778
-0.518568643
-0.461048522
-0.373706655
-0.261604327
-0.13143714
0.00886423456
0.150617035
0.28492375
0.403230542
0.497871725
0.562565651
0.592829976
0.586288947
0.542851837
0.464749512
0.35642494
0.224282625
0.076310971
-0.0784002601
-0.230218235
-0.369566821
-0.487530495
-0.576424297
-0.630293447
-0.645310177
-0.620041475
-0.555569225
-0.455453361
-0.325538417
-0.173613785
-0.00894731995
0.158279823
0.317602654
0.458927217
0.573169873
0.65284053
0.692532402
0.68928636
0.642805461
0.555504421
0.432389026
0.280771151
0.109835453
-0.0699166257
-0.247311917
-0.411200043
-0.551154196
-0.658134172
-0.725069491
-0.747325055
-0.723018773
-0.653169558
-0.541664596
-0.395045984
-0.222128274
-0.0334691695
0.15927487
0.344068806
0.509250482
0.644266447
0.740345731
0.791068579
0.792793332
0.744913186
0.64992498
0.513303807
0.343189387
0.149902028
-0.0546830813
-0.257865359
-0.446907273
-0.609832809
-0.736185898
-0.817700807
-0.848841533
-0.827175093
-0.75355368
-0.632092454
-0.469942418
-0.276870734
-0.0646729967
0.15354718
0.364187299
0.553993873
0.710896212
0.824773679
0.888107644
0.896476211
0.848859245
0.747732874
0.598945664
0.41138227
0.196433804
-0.0326935802
-0.261789941
-0.476522809
-0.663333804
-0.810294522
-0.907867672
-0.949524925
-0.932181522
-0.856418828
-0.726479085
-0.550030765
-0.337717312
-0.102515728
0.141056371
0.377836791
0.592962597
0.77280299
0.905822678
0.983321075
1
0.95432292
0.84864154
0.689079946
0.485181606
0.249339469
-0.00395688829
-0.259011333
-0.49989382
-0.49989382

shape_id 13
num_samples 3
0.75791031
-1
-0

shape_id 14
num_samples 3
0
7
11

shape_id 15
num_samples 4
0.776587728
1
1
-0

shape_id 16
num_samples 4
0
1
3
6

shape_id 17
num_samples 258
-0
0.0112441341
0.016241585
0.0186756426
0.0181373782
0.0145152767
0.00801118474
-0.000870787023
-0.0113618072
-0.0224895924
-0.0331587555
-0.0422439999
-0.0486888063
-0.0516016902
-0.0503421438
-0.0445890231
-0.0343853513
-0.020155209
-0.00269044473
0.0168927821
0.0372252809
0.0567793858
0.0739803206
0.0873264319
0.0955094251
0.0975254589
0.09276834
0.0810971092
0.0628719606
0.0389545684
0.0106713922
-0.0202588107
-0.0518293773
-0.0818756995
-0.10822235
-0.128837447
-0.141983466
-0.146353614
-0.141183507
-0.126329327
-0.102305694
-0.0702790958
-0.0320157021
0.0102144514
0.0537718254
0.095812354
0.133472723
0.164063906
0.18525996
0.195268998
0.192974076
0.178033386
0.150931639
0.112977545
0.0662458388
0.0134660153
-0.0421364372
-0.0970370915
-0.1476359
-0.190492631
-0.222559057
-0.241392333
-0.245334803
-0.233647323
-0.206585937
-0.165415216
-0.112355621
-0.0504665469
0.0165290048
0.0844681299
0.149006694
0.20589689
0.251265967
0.281877881
0.295360315
0.29038134
0.266762917
0.22552229
0.168836788
0.0999325042
0.0229022585
-0.0575369762
-0.136332853
-0.208414952
-0.269020688
-0.314008883
-0.340140438
-0.345307204
-0.328693112
-0.290855678
-0.233720902
-0.16049004
-0.0754623928
0.0162162178
0.10886464
0.196618437
0.273800978
0.335290092
0.376856646
0.395452734
0.389430002
0.358672734
0.304635519
0.230281278
0.139921715
0.0389685908
-0.0663899229
-0.169568486
-0.26399619
-0.343534788
-0.402876954
-0.437898778
-0.445943167
-0.426014875
-0.378873164
-0.307014423
-0.214543986
-0.106943413
0.0092536681
0.126858071
0.238469834
0.336943782
0.415846565
0.469875974
0.495215252
0.489798847
0.453471307
0.388027548
0.297130092
0.186106619
0.0616388521
-0.0686391225
-0.196608999
-0.314174142
-0.413771707
-0.488858606
-0.534340119
-0.546913164
-0.525301207
-0.470364404
-0.385076181
-0.274365862
-0.144835409
-0.00436644139
0.138359109
0.274395584
0.395094252
0.492652899
0.560619442
0.594317114
0.591163277
0.550860311
0.475444809
0.369190131
0.23836655
0.0908722907
-0.0642428834
-0.217332835
-0.358754916
-0.479477229
-0.571655041
-0.629139598
-0.647886388
-0.626235854
-0.565047295
-0.467675703
-0.339791109
-0.18904993
-0.0246372567
0.143292584
0.304243145
0.448031924
0.565434362
0.64877507
0.692428418
0.693195912
0.650535167
0.566624396
0.446256456
0.296567238
0.126613626
-0.0531740663
-0.231632112
-0.397556567
-0.540406613
-0.650973885
-0.721975317
-0.748531363
-0.728498299
-0.662632138
-0.554572057
-0.410642494
-0.239484428
-0.0515372717
0.141597621
0.327873031
0.495547335
0.63392449
0.734035898
0.789220726
0.795567178
0.752185593
0.661294543
0.528112656
0.360561039
0.168793135
-0.0354201491
-0.239412833
-0.430409441
-0.596325055
-0.726529729
-0.812528941
-0.848516551
-0.83176434
-0.762822154
-0.645514281
-0.48673042
-0.296022426
-0.0850303505
0.133227773
0.345159079
0.537442421
0.697865582
0.816100553
0.884367663
0.897945921
0.855496167
0.759175107
0.614531228
0.430187192
0.217326762
-0.0109832679
-0.240595076
-0.457156505
-0.647008133
-0.798044662
-0.900486287
-0.947510958
-0.935706682
-0.865314025
-0.740241828
-0.567853263
-0.358533717
-0.125065775
0.118151116
0.355988699
0.573530893
0.75700919
0.894673812
0.977545519
1
0.960146899
0.859978076
0.705273984
0.505272093
0.272116253
0.0201197659
0.0201197659

shape_id 18
num_samples 258
0
0.0112300329
0.0051047029
-0.00254404925
-0.0108282448
-0.0187710528
-0.0253962347
-0.0298188348
-0.0313296139
-0.0294661462
-0.0240644823
-0.0152867398
-0.00362182546
0.010141428
0.0249672599
0.0396485731
0.0528997244
0.0634596402
0.0701974057
0.0722120727
0.068918646
0.0601130397
0.0460101871
0.0272513535
0.00487891306
-0.0197207537
-0.0449031708
-0.0688751614
-0.0898204813
-0.106032999
-0.116047887
-0.118761094
-0.113527927
-0.100232724
-0.0793234702
-0.0518074843
-0.0192069911
0.0165238002
0.053115676
0.0881284696
0.119113042
0.143780482
0.160166955
0.166782546
0.16273319
0.147806268
0.122512708
0.0880811475
0.0464029347
-6.99582766e-05
-0.0484687216
-0.0956847923
-0.138569308
-0.174142142
-0.199796705
-0.213486557
-0.213880708
-0.200476208
-0.173659166
-0.134708551
-0.085740824
-0.0295973275
0.0303197398
0.0902533501
0.14632721
0.19479609
0.232294779
0.256069179
0.264173817
0.255621861
0.230476502
0.189876157
0.135990108
0.0719057061
0.00145276739
-0.0710249327
-0.140937455
-0.203739275
-0.25522426
-0.291805922
-0.310764373
-0.310443129
-0.290381803
-0.251374599
-0.195449104
-0.125764947
-0.0464370941
0.0377064675
0.12141843
0.199359393
0.266438205
0.318143755
0.35084662
0.362050498
0.350576212
0.316665023
0.261992987
0.189593632
0.103692083
0.00945954612
-0.0872976604
-0.180495842
-0.264156399
-0.332788987
-0.381750832
-0.407558743
-0.408132976
-0.38295608
-0.333135028
-0.261360887
-0.17176678
-0.0696913963
0.0386385361
0.146487941
0.24703213
0.333788534
0.401034136
0.44418175
0.460090483
0.447289511
0.406099477
0.338642101
0.248735579
0.141680556
0.0239485522
-0.0972089299
-0.214207007
-0.319602234
-0.406565912
-0.46932581
-0.503547761
-0.506632007
-0.47790418
-0.418687243
-0.332248031
-0.223619935
-0.0993111561
0.0330846678
0.165352184
0.289164096
0.396605358
0.48067878
0.535759793
0.557970863
0.545450725
0.498499978
0.419592102
0.313247378
0.185775829
0.0449036725
-0.100694671
-0.241930662
-0.369868962
-0.47629256
-0.554229985
-0.598410801
-0.605619704
-0.57492555
-0.507769281
-0.407903393
-0.281184926
-0.135233192
0.0210278222
0.177914948
0.325585869
0.454656534
0.556797204
0.625269306
0.655368525
0.644745091
0.593579618
0.50460171
0.382948332
0.235868987
0.0722945242
-0.0977048463
-0.263539447
-0.414759787
-0.541714888
-0.636167802
-0.691829105
-0.704773857
-0.673714493
-0.600110897
-0.488108929
-0.344309418
-0.177380324
0.00246524047
0.184093701
0.35614025
0.507719934
0.62911611
0.712402748
0.751960743
0.744854689
0.691044979
0.593420197
0.457645937
0.291837679
0.106076497
-0.0882035579
-0.278919172
-0.4540893
-0.60258775
-0.714849565
-0.783486374
-0.803771156
-0.77396072
-0.69543405
-0.572636074
-0.412828492
-0.225661495
-0.022591534
0.183819754
0.380682568
0.555583864
0.697369895
0.796857057
0.847425769
0.845459022
0.790596674
0.685787833
0.537136218
0.353546329
0.146190816
-0.0721691297
-0.28796905
-0.487683839
-0.658675365
-0.789991978
-0.873069344
-0.902287782
-0.875349917
-0.793453408
-0.661246158
-0.486564929
-0.279971928
-0.0541166586
0.177038406
0.399080963
0.598047467
0.76130114
0.878334203
0.941443425
0.9462356
0.891929881
0.781436352
0.621204091
0.420846365
0.192564635
-0.0495941667
-0.290601894
-0.515381822
-0.709751759
-0.861318673
-0.960268375
-1
-1

shape_id 19
num_samples 3
0.0193926857
-1
-0

shape_id 20
num_samples 3
0
4
8

shape_id 21
num_samples 3
1
-0.906338075
-0

shape_id 22
num_samples 258
-0
0.0159017577
0.0129039526
0.00721964815
-0.000555666219
-0.00959439281
-0.0189096801
-0.0274431966
-0.0341607243
-0.0381477753
-0.0386973404
-0.0353823934
-0.0281068669
-0.0171304134
-0.0030642426
0.0131624502
0.0303636539
0.0471812937
0.0621876131
0.0739977025
0.0813837027
0.0833818351
0.0793836948
0.0692041819
0.0531199748
0.0318744763
0.00664754886
-0.0210090719
-0.0492672149
-0.0761426939
-0.0996328026
-0.117861458
-0.129221684
-0.132504975
-0.127007654
-0.112605686
-0.089791351
-0.0596677043
-0.0238996057
0.0153768564
0.055681717
0.0943476868
0.128696021
0.15622015
0.17476459
0.182686575
0.178988649
0.163412075
0.136483305
0.0995087281
0.054516324
0.00414641493
-0.0485027288
-0.100065442
-0.147123659
-0.18643262
-0.215142446
-0.231000561
-0.232520816
-0.21910699
-0.191121051
-0.149890002
-0.0976490532
-0.0374230615
0.0271476601
0.0920271984
0.153036293
0.206121219
0.247622025
0.274522437
0.284664498
0.276912921
0.251257059
0.208842191
0.151926287
0.0837631939
0.00841804042
-0.0694747604
-0.144996537
-0.213254883
-0.269700083
-0.310426997
-0.332442469
-0.33388008
-0.314147139
-0.273992819
-0.215491286
-0.141938999
-0.057670948
0.0321940704
0.122064215
0.206222553
0.279190548
0.336083981
0.372938227
0.386981325
0.376836203
0.342637627
0.286054661
0.210215328
0.119536366
0.019467189
-0.0838372131
-0.183894803
-0.274303192
-0.349148981
-0.403393599
-0.433210512
-0.436251362
-0.411822718
-0.360960551
-0.286395844
-0.192411617
-0.0845985776
0.0304767652
0.145671869
0.253711484
0.347647016
0.421302932
0.469681562
0.48929982
0.478435311
0.437264669
0.367883596
0.274205412
0.161742647
0.0372836878
-0.0915166052
-0.216607654
-0.330046345
-0.42450119
-0.493725469
-0.532968878
-0.539300622
-0.511822157
-0.451754451
-0.362392374
-0.248927192
-0.118146482
0.0219712796
0.162743275
0.295320396
0.411243446
0.502982532
0.56442528
0.591282272
0.581382908
0.534841509
0.454081358
0.343713291
0.21027453
0.0618424364
-0.0924540718
-0.242995902
-0.380273453
-0.49548718
-0.581111137
-0.631383449
-0.642691796
-0.61382827
-0.546095862
-0.443258013
-0.311332468
-0.15824051
0.00666806134
0.173185764
0.330879243
0.469742947
0.580833715
0.656846051
0.692591115
0.685348113
0.635064445
0.544390247
0.418543231
0.26501038
0.0931034407
-0.0866054851
-0.262934028
-0.424785377
-0.561846526
-0.665245023
-0.728122423
-0.746087417
-0.71751883
-0.643697765
-0.528758736
-0.379460915
-0.20479195
-0.0154274976
0.17692107
0.360230946
0.522919353
0.654575237
0.746624976
0.792889554
0.789997095
0.737623299
0.638542955
0.498487359
0.325814646
0.131011871
-0.0739415499
-0.276310422
-0.4633951
-0.623328389
-0.745828004
-0.822856921
-0.849149225
-0.822567156
-0.744265299
-0.618649773
-0.453133023
-0.257697678
-0.0442950544
0.17388549
0.383231693
0.570557651
0.723934203
0.833448177
0.891842177
0.894993688
0.842201977
0.736263049
0.583326036
0.39253809
0.175498144
-0.054447876
-0.283027605
-0.495928092
-0.679691992
-0.822567971
-0.915261598
-0.951538794
-0.928642707
-0.84749629
-0.712676042
-0.532156612
-0.316840328
-0.0798993333
0.164030014
0.399751224
0.612454391
0.788646573
0.917007384
0.989115573
1
0.948479045
0.837265465
0.672828234
0.465018041
0.226478033
-0.0281250247
-0.28300243
-0.522222641
-0.730707075
-0.895180372
-0.895180372

shape_id 23
num_samples 258
-0
0.00394609953
0.0113475999
0.017322768
0.0210694682
0.0219957101
0.0197787788
0.014401784
0.00616433066
-0.00433395126
-0.0162361267
-0.028493932
-0.0399521161
-0.0494447106
-0.055895724
-0.0584162452
-0.0563900425
-0.0495404478
-0.0379725937
-0.0221868188
-0.00306116887
0.0181967645
0.0401260732
0.0611120195
0.0795020554
0.0937301917
0.102440637
0.10460139
0.0995988957
0.0873059868
0.0681170384
0.0429464469
0.0131891041
-0.0193557543
-0.0525932499
-0.0842675503
-0.112113894
-0.134017771
-0.148170214
-0.153208068
-0.148328794
-0.133370785
-0.108852327
-0.0759649709
-0.0365201483
0.0071489483
0.0523250143
0.0960757168
0.135443692
0.167645165
0.190263926
0.201427305
0.199951598
0.185446108
0.158367434
0.120018765
0.0724925094
0.018558347
-0.0384974535
-0.0950721891
-0.147474156
-0.19216301
-0.225987436
-0.246404262
-0.251663942
-0.240949189
-0.214456272
-0.173412031
-0.120023733
-0.0573632641
0.0108084734
0.0802670015
0.146586046
0.205419438
0.252785184
0.285333197
0.300578778
0.297085759
0.274586164
0.23402703
0.177539623
0.108331203
0.0305045694
-0.0511845829
-0.131618176
-0.205636395
-0.268368375
-0.315551761
-0.343820223
-0.350939667
-0.335976759
-0.29938747
-0.243018216
-0.170017698
-0.0846632769
0.0078887251
0.101914249
0.191475508
0.270795872
0.334631975
0.378619092
0.399567123
0.39568724
0.366733346
0.314047677
0.240505823
0.150362819
0.0490083206
-0.057355127
-0.162091569
-0.25854565
-0.34046532
-0.402406417
-0.440092967
-0.450709454
-0.433105242
-0.387896618
-0.317458211
-0.225802469
-0.118353007
-0.00162450149
0.117172046
0.23057475
0.331339493
0.41290235
0.469806279
0.498064405
0.495435816
0.46159498
0.398182386
0.308731368
0.198473876
0.0740356713
-0.0569613599
-0.186365941
-0.306004621
-0.408197894
-0.486252662
-0.534899464
-0.550646
-0.532023339
-0.479707711
-0.396508408
-0.287220686
-0.158351102
-0.0177308997
0.125959629
0.263726939
0.386827112
0.487320591
0.55858359
0.595743282
0.596008255
0.558871971
0.486174729
0.382018389
0.252537325
0.105538265
-0.0499699429
-0.204328321
-0.3478277
-0.471319349
-0.56679789
-0.62791938
-0.65042109
-0.632415288
-0.574537004
-0.47993466
-0.354102312
-0.204562169
-0.0404156406
0.128210341
0.29078806
0.437046274
0.557618962
0.644644594
0.692277613
0.69707891
0.658259342
0.577759301
0.460157492
0.312412765
0.143453397
-0.0363619982
-0.215879411
-0.383841318
-0.529592594
-0.643756176
-0.718835668
-0.749706193
-0.733961433
-0.672093519
-0.5674927
-0.426264928
-0.256876944
-0.0696493861
0.123871772
0.311627195
0.481795658
0.623538209
0.727688167
0.787343055
0.798320315
0.759446794
0.672662192
0.542928136
0.377946688
