# Pulseq sequence file
# Created by MATLAB mr toolbox

[VERSION]
major 1
minor 5
revision 1

[DEFINITIONS]
AdcRasterTime 2e-06 
BlockDurationRaster 2e-05 
FOV 0.22 0.22 0.015 
GradientRasterTime 2e-05 
NumSlices 3 
PeakRF 219.402932 
RadiofrequencyRasterTime 2e-06 
TR 0.07882 
TotalDuration 0.23646 

# Format of blocks:
# NUM DUR RF  GX  GY  GZ  ADC  EXT
[BLOCKS]
  1 1000   1   0   0   0  0  0
  2  50   0   0   0   1  0  0
  3   5   0   0   0   0  0  0
  4 108   2   0   0   2  0  0
  5  50   0   3   4   5  0  0
  6 129   0   6   0   0  1  0
  7  50   0   7   8   1  0  0
  8 108   3   0   0   2  0  0
  9  50   0   3   9   5  0  0
 10 129   0   6   0   0  2  0
 11  50   0   7  10   1  0  0
 12 108   4   0   0   2  0  0
 13  50   0   3  11   5  0  0
 14 129   0   6   0   0  3  0
 15  50   0   7  12   1  0  0
 16 108   5   0   0   2  0  0
 17  50   0   3  13   5  0  0
 18 129   0   6   0   0  4  0
 19  50   0   7  14   1  0  0
 20 108   6   0   0   2  0  0
 21  50   0   3  15   5  0  0
 22 129   0   6   0   0  5  0
 23  50   0   7  16   1  0  0
 24 108   7   0   0   2  0  0
 25  50   0   3  14   5  0  0
 26 129   0   6   0   0  6  0
 27  50   0   7  13   1  0  0
 28 108   8   0   0   2  0  0
 29  50   0   3  12   5  0  0
 30 129   0   6   0   0  7  0
 31  50   0   7  11   1  0  0
 32 108   4   0   0   2  0  0
 33  50   0   3  10   5  0  0
 34 129   0   6   0   0  3  0
 35  50   0   7   9   1  0  0
 36  39   9  17  17  18  0  1
 37  16   0  19  19  20  8  0
 38  39   9  17  18  17  0  1
 39  16   0  19  20  19  8  0
 40  39   9  18  17  17  0  1
 41  16   0  20  19  19  8  0
 42  25   0   0   0   0  0  0
 43 1000   1   0   0   0  0  0
 44  50   0   0   0   1  0  0
 45   5   0   0   0   0  0  0
 46 108  10   0   0   2  0  0
 47  50   0   3   4   5  0  0
 48 129   0   6   0   0  9  0
 49  50   0   7   8   1  0  0
 50 108  11   0   0   2  0  0
 51  50   0   3   9   5  0  0
 52 129   0   6   0   0 10  0
 53  50   0   7  10   1  0  0
 54 108  12   0   0   2  0  0
 55  50   0   3  11   5  0  0
 56 129   0   6   0   0 11  0
 57  50   0   7  12   1  0  0
 58 108  13   0   0   2  0  0
 59  50   0   3  13   5  0  0
 60 129   0   6   0   0 12  0
 61  50   0   7  14   1  0  0
 62 108  14   0   0   2  0  0
 63  50   0   3  15   5  0  0
 64 129   0   6   0   0 13  0
 65  50   0   7  16   1  0  0
 66 108  10   0   0   2  0  0
 67  50   0   3  14   5  0  0
 68 129   0   6   0   0  9  0
 69  50   0   7  13   1  0  0
 70 108  15   0   0   2  0  0
 71  50   0   3  12   5  0  0
 72 129   0   6   0   0 14  0
 73  50   0   7  11   1  0  0
 74 108  16   0   0   2  0  0
 75  50   0   3  10   5  0  0
 76 129   0   6   0   0 15  0
 77  50   0   7   9   1  0  0
 78  39   9  17  17  18  0  1
 79  16   0  19  19  20  8  0
 80  39   9  17  18  17  0  1
 81  16   0  19  20  19  8  0
 82  39   9  18  17  17  0  1
 83  16   0  20  19  19  8  0
 84  25   0   0   0   0  0  0
 85 1000   1   0   0   0  0  0
 86  50   0   0   0   1  0  0
 87   5   0   0   0   0  0  0
 88 108  17   0   0   2  0  0
 89  50   0   3   4   5  0  0
 90 129   0   6   0   0 16  0
 91  50   0   7   8   1  0  0
 92 108  18   0   0   2  0  0
 93  50   0   3   9   5  0  0
 94 129   0   6   0   0 17  0
 95  50   0   7  10   1  0  0
 96 108  19   0   0   2  0  0
 97  50   0   3  11   5  0  0
 98 129   0   6   0   0 18  0
 99  50   0   7  12   1  0  0
100 108  20   0   0   2  0  0
101  50   0   3  13   5  0  0
102 129   0   6   0   0 19  0
103  50   0   7  14   1  0  0
104 108  18   0   0   2  0  0
105  50   0   3  15   5  0  0
106 129   0   6   0   0 17  0
107  50   0   7  16   1  0  0
108 108  21   0   0   2  0  0
109  50   0   3  14   5  0  0
110 129   0   6   0   0 20  0
111  50   0   7  13   1  0  0
112 108  22   0   0   2  0  0
113  50   0   3  12   5  0  0
114 129   0   6   0   0 21  0
115  50   0   7  11   1  0  0
116 108  20   0   0   2  0  0
117  50   0   3  10   5  0  0
118 129   0   6   0   0 19  0
119  50   0   7   9   1  0  0
120  39   9  17  17  18  0  1
121  16   0  19  19  20  8  0
122  39   9  17  18  17  0  1
123  16   0  19  20  19  8  0
124  39   9  18  17  17  0  1
125  16   0  20  19  19  8  0
126  25   0   0   0   0  0  0

# Format of RF events:
# id ampl. mag_id phase_id time_shape_id center delay freqPPM phasePPM freq phase use
# ..   Hz      ..       ..            ..     us    us     ppm  rad/MHz   Hz   rad  ..
# Field 'use' is the initial of: 
#   excitation refocusing inversion saturation preparation other undefined
[RF]
1           25 1 2 3 10000 0 0 0 0 0 e
2      54.8582 4 5 0 1000 80 0 0 -2000 14.0324 e
3      54.8582 4 5 0 1000 80 0 0 -2000 16.9646 e
4      54.8582 4 5 0 1000 80 0 0 -2000 15.0796 e
5      54.8582 4 5 0 1000 80 0 0 -2000 14.6608 e
6      54.8582 4 5 0 1000 80 0 0 -2000 15.708 e
7      54.8582 4 5 0 1000 80 0 0 -2000 18.2212 e
8      54.8582 4 5 0 1000 80 0 0 -2000 15.9174 e
9      219.403 10 11 0 250 140 0 0 0 0 e
10      54.8582 4 5 0 1000 80 0 0 0 3.14159 e
11      54.8582 4 5 0 1000 80 0 0 0 5.23599 e
12      54.8582 4 5 0 1000 80 0 0 0 2.51327 e
13      54.8582 4 5 0 1000 80 0 0 0 1.25664 e
14      54.8582 4 5 0 1000 80 0 0 0 1.46608 e
15      54.8582 4 5 0 1000 80 0 0 0 0 e
16      54.8582 4 5 0 1000 80 0 0 0 4.60767 e
17      54.8582 4 5 0 1000 80 0 0 2000 -8.16814 e
18      54.8582 4 5 0 1000 80 0 0 2000 -6.9115 e
19      54.8582 4 5 0 1000 80 0 0 2000 -10.472 e
20      54.8582 4 5 0 1000 80 0 0 2000 -12.5664 e
21      54.8582 4 5 0 1000 80 0 0 2000 -12.3569 e
22      54.8582 4 5 0 1000 80 0 0 2000 -10.0531 e

# Format of arbitrary gradients:
#   time_shape_id of 0 means default timing (stepping with grad_raster starting at 1/2 of grad_raster)
# id amplitude first last amp_shape_id time_shape_id delay
# ..      Hz/m  Hz/m Hz/m        ..         ..          us
[GRADIENTS]
6       113636            0       113636 6 7 0
7  1.17877e+06       113636            0 8 9 0

# Format of trapezoid gradients:
# id amplitude rise flat fall delay
# ..      Hz/m   us   us   us    us
[TRAP]
 1       952381 160  680 160   0
 2       400000  80 2000  80   0
 3      -152699  40  920  40   0
 4     -18552.9  20  960  20   0
 5      -452174  80  840  80   0
 8      18552.9  20  960  20   0
 9     -13914.7  20  960  20   0
10      13914.7  20  960  20   0
11     -9276.44  20  960  20   0
12      9276.44  20  960  20   0
13     -4638.22  20  960  20   0
14      4638.22  20  960  20   0
15            0  20  960  20   0
16           -0  20  960  20   0
17            0 140  500 140   0
18       800000 140  500 140   0
19       454545  80  160  80   0
20            0  80  160  80   0

# Format of ADC events:
# id num dwell delay freqPPM phasePPM freq phase phase_id
# ..  ..    ns    us     ppm  rad/MHz   Hz   rad       ..
[ADC]
1 64 40000 20 0 0 -2000 1.46608 0
2 64 40000 20 0 0 -2000 4.39823 0
3 64 40000 20 0 0 -2000 2.51327 0
4 64 40000 20 0 0 -2000 2.0944 0
5 64 40000 20 0 0 -2000 3.14159 0
6 64 40000 20 0 0 -2000 5.65487 0
7 64 40000 20 0 0 -2000 3.35103 0
8 16 10000 80 0 0 0 0 0
9 64 40000 20 0 0 0 3.14159 0
10 64 40000 20 0 0 0 5.23599 0
11 64 40000 20 0 0 0 2.51327 0
12 64 40000 20 0 0 0 1.25664 0
13 64 40000 20 0 0 0 1.46608 0
14 64 40000 20 0 0 0 0 0
15 64 40000 20 0 0 0 4.60767 0
16 64 40000 20 0 0 2000 4.39823 0
17 64 40000 20 0 0 2000 5.65487 0
18 64 40000 20 0 0 2000 2.0944 0
19 64 40000 20 0 0 2000 0 0
20 64 40000 20 0 0 2000 0.20944 0
21 64 40000 20 0 0 2000 2.51327 0

# Format of extension lists:
# id type ref next_id
# next_id of 0 terminates the list
# Extension list is followed by extension specifications
[EXTENSIONS]
1 1 1 0

# Extension specification for setting labels:
# id set labelstring
extension LABELSET 1
1 1 NAV

# Sequence Shapes
[SHAPES]

shape_id 1
num_samples 2
1
1

shape_id 2
num_samples 2
0
0

shape_id 3
num_samples 2
0
10000

shape_id 4
num_samples 1000
2.46987503e-09
6.68164436e-08
3.09920458e-07
8.51983185e-07
1.8139994e-06
3.31769462e-06
5.48546172e-06
8.44029687e-06
1.23057349e-05
1.72057839e-05
2.32648598e-05
3.06077193e-05
3.93593938e-05
4.96451212e-05
6.15902785e-05
7.53203133e-05
9.0960675e-05
0.000108636746
0.00012847377
0.000150596786
0.000175130554
0.000202199487
0.000231927578
0.000264438332
0.00029985469
0.000338298962
0.00037989275
0.000424756882
0.000473011336
0.000524775166
0.000580166435
0.000639302138
0.000702298131
0.000769269059
0.000840328283
0.000915587807
0.000995158206
0.00107914855
0.00116766635
0.00126081745
0.001358706
0.00146143433
0.00156910294
0.00168181038
0.00179965321
0.0019227259
0.00205112078
0.00218492798
0.00232423533
0.00246912832
0.00261969001
0.00277600097
0.00293813921
0.00310618011
0.00328019639
0.00346025796
0.00364643195
0.00383878258
0.00403737111
0.0042422558
0.00445349183
0.00467113121
0.00489522278
0.00512581209
0.00536294137
0.00560664948
0.00585697182
0.00611394028
0.00637758323
0.00664792539
0.00692498783
0.00720878789
0.00749933914
0.00779665132
0.0081007303
0.00841157802
0.00872919243
0.00905356747
0.00938469301
0.00972255481
0.0100671344
0.0104184093
0.0107763526
0.011140933
0.0115121153
0.0118898595
0.0122741214
0.0126648523
0.0130619991
0.0134655042
0.0138753055
0.014291336
0.0147135246
0.0151417953
0.0155760675
0.0160162559
0.0164622705
0.0169140168
0.0173713952
0.0178343015
0.018302627
0.0187762578
0.0192550753
0.0197389563
0.0202277726
0.0207213911
0.0212196741
0.0217224788
0.0222296577
0.0227410583
0.0232565234
0.0237758909
0.0242989938
0.0248256602
0.0253557136
0.0258889722
0.0264252499
0.0269643554
0.0275060927
0.0280502611
0.0285966549
0.0291450639
0.029695273
0.0302470623
0.0308002074
0.031354479
0.0319096433
0.0324654619
0.0330216916
0.0335780848
0.0341343894
0.0346903485
0.0352457012
0.0358001817
0.0363535202
0.0369054422
0.0374556692
0.0380039182
0.0385499021
0.0390933297
0.0396339054
0.0401713298
0.0407052993
0.0412355066
0.0417616401
0.0422833846
0.0428004212
0.0433124269
0.0438190754
0.0443200365
0.0448149767
0.0453035589
0.0457854425
0.0462602837
0.0467277354
0.0471874473
0.0476390659
0.0480822347
0.0485165944
0.0489417825
0.0493574338
0.0497631806
0.0501586521
0.0505434754
0.0509172749
0.0512796725
0.051630288
0.0519687388
0.0522946404
0.0526076061
0.0529072472
0.0531931734
0.0534649925
0.0537223105
0.0539647321
0.0541918604
0.0544032973
0.0545986431
0.0547774973
0.0549394583
0.0550841233
0.0552110888
0.0553199508
0.0554103043
0.0554817439
0.055533864
0.0555662583
0.0555785206
0.0555702446
0.0555410239
0.0554904523
0.0554181239
0.0553236331
0.0552065747
0.0550665443
0.0549031382
0.0547159532
0.0545045875
0.05426864
0.0540077109
0.0537214019
0.0534093157
0.0530710568
0.0527062314
0.0523144473
0.0518953143
0.0514484442
0.0509734507
0.0504699502
0.049937561
0.0493759042
0.0487846034
0.0481632849
0.0475115779
0.0468291145
0.0461155299
0.0453704626
0.0445935543
0.0437844502
0.042942799
0.0420682533
0.0411604692
0.0402191068
0.0392438304
0.0382343084
0.0371902132
0.036111222
0.0349970161
0.0338472818
0.0326617098
0.0314399958
0.0301818404
0.0288869494
0.0275550337
0.0261858094
0.024778998
0.0233343268
0.0218515285
0.0203303413
0.0187705097
0.0171717839
0.0155339201
0.0138566808
0.0121398346
0.0103831565
0.008586428
0.00674943716
0.00487197864
0.00295385387
0.00099487113
0.00100515437
0.00304640039
0.00512903756
0.00725322929
0.00941913171
0.0116268935
0.013876656
0.0161685529
0.0185027101
0.0208792461
0.0232982713
0.0257598884
0.028264192
0.0308112688
0.0334011973
0.036034048
0.0387098828
0.0414287556
0.0441907117
0.0469957882
0.0498440135
0.0527354075
0.0556699814
0.0586477378
0.0616686704
0.0647327645
0.067839996
0.0709903323
0.0741837318
0.0774201438
0.0806995087
0.0840217577
0.0873868129
0.0907945874
0.0942449851
0.0977379004
0.101273219
0.104850817
0.10847056
0.112132307
0.115835906
0.119581195
0.123368004
0.127196153
0.131065453
0.134975704
0.138926698
0.142918219
0.146950038
0.151021919
0.155133616
0.159284874
0.163475429
0.167705005
0.171973319
0.176280079
0.180624981
0.185007715
0.189427958
0.193885382
0.198379645
0.202910399
0.207477286
0.212079939
0.21671798
0.221391025
0.226098679
0.230840537
0.235616187
0.240425207
0.245267167
0.250141627
0.255048138
0.259986244
0.264955478
0.269955367
0.274985427
0.280045167
0.285134087
0.290251678
0.295397424
0.3005708
0.305771273
0.310998302
0.316251338
0.321529824
0.326833195
0.332160878
0.337512294
0.342886855
0.348283965
0.353703022
0.359143416
0.364604529
0.370085739
0.375586414
0.381105915
0.386643598
0.392198813
0.3977709
0.403359196
0.408963029
0.414581724
0.420214598
0.42586096
0.431520118
0.43719137
0.44287401
0.448567328
0.454270606
0.459983122
0.46570415
0.471432957
0.477168807
0.482910958
0.488658665
0.494411177
0.500167739
0.505927594
0.511689979
0.517454126
0.523219267
0.528984627
0.53474943
0.540512895
0.54627424
0.552032677
0.55778742
0.563537675
0.569282649
0.575021546
0.580753567
0.586477913
0.59219378
0.597900366
0.603596864
0.609282469
0.614956372
0.620617764
0.626265837
0.631899779
0.63751878
0.643122028
0.648708713
0.654278022
0.659829144
0.665361268
0.670873584
0.676365282
0.681835553
0.687283588
0.692708581
0.698109726
0.703486218
0.708837256
0.714162039
0.719459767
0.724729644
0.729970876
0.735182671
0.74036424
0.745514796
0.750633557
0.755719741
0.760772573
0.765791278
0.770775086
0.775723232
0.780634954
0.785509493
0.790346097
0.795144015
0.799902504
0.804620823
0.809298238
0.813934019
0.818527441
0.823077785
0.827584338
0.832046391
0.836463243
0.840834198
0.845158566
0.849435662
0.853664812
0.857845343
0.861976592
0.866057902
0.870088624
0.874068115
0.87799574
0.88187087
0.885692886
0.889461176
0.893175134
0.896834165
0.900437679
0.903985097
0.907475846
0.910909364
0.914285096
0.917602496
0.920861027
0.92406016
0.927199378
0.93027817
0.933296037
0.936252486
0.939147038
0.94197922
0.94474857
0.947454638
0.950096979
0.952675164
0.955188769
0.957637383
0.960020606
0.962338047
0.964589325
0.96677407
0.968891925
0.970942541
0.97292558
0.974840717
0.976687636
0.978466033
0.980175615
0.9818161
0.983387217
0.984888707
0.986320323
0.987681827
0.988972995
0.990193613
0.99134348
0.992422405
0.993430211
0.994366729
0.995231805
0.996025297
0.996747071
0.99739701
0.997975004
0.998480959
0.998914791
0.999276427
0.999565808
0.999782886
0.999927625
1
1
0.999927625
0.999782886
0.999565808
0.999276427
0.998914791
0.998480959
0.997975004
0.99739701
0.996747071
0.996025297
0.995231805
0.994366729
0.993430211
0.992422405
0.99134348
0.990193613
0.988972995
0.987681827
0.986320323
0.984888707
0.983387217
0.9818161
0.980175615
0.978466033
0.976687636
0.974840717
0.97292558
0.970942541
0.968891925
0.96677407
0.964589325
0.962338047
0.960020606
0.957637383
0.955188769
0.952675164
0.950096979
0.947454638
0.94474857
0.94197922
0.939147038
0.936252486
0.933296037
0.93027817
0.927199378
0.92406016
0.920861027
0.917602496
0.914285096
0.910909364
0.907475846
0.903985097
0.900437679
0.896834165
0.893175134
0.889461176
0.885692886
0.88187087
0.87799574
0.874068115
0.870088624
0.866057902
0.861976592
0.857845343
0.853664812
0.849435662
0.845158566
0.840834198
0.836463243
0.832046391
0.827584338
0.823077785
0.818527441
0.813934019
0.809298238
0.804620823
0.799902504
0.795144015
0.790346097
0.785509493
0.780634954
0.775723232
0.770775086
0.765791278
0.760772573
0.755719741
0.750633557
0.745514796
0.74036424
0.735182671
0.729970876
0.724729644
0.719459767
0.714162039
0.708837256
0.703486218
0.698109726
0.692708581
0.687283588
0.681835553
0.676365282
0.670873584
0.665361268
0.659829144
0.654278022
0.648708713
0.643122028
0.63751878
0.631899779
0.626265837
0.620617764
0.614956372
0.609282469
0.603596864
0.597900366
0.59219378
0.586477913
0.580753567
0.575021546
0.569282649
0.563537675
0.55778742
0.552032677
0.54627424
0.540512895
0.53474943
0.528984627
0.523219267
0.517454126
0.511689979
0.505927594
0.500167739
0.494411177
0.488658665
0.482910958
0.477168807
0.471432957
0.46570415
0.459983122
0.454270606
0.448567328
0.44287401
0.43719137
0.431520118
0.42586096
0.420214598
0.414581724
0.408963029
0.403359196
0.3977709
0.392198813
0.386643598
0.381105915
0.375586414
0.370085739
0.364604529
0.359143416
0.353703022
0.348283965
0.342886855
0.337512294
0.332160878
0.326833195
0.321529824
0.316251338
0.310998302
0.305771273
0.3005708
0.295397424
0.290251678
0.285134087
0.280045167
0.274985427
0.269955367
0.264955478
0.259986244
0.255048138
0.250141627
0.245267167
0.240425207
0.235616187
0.230840537
0.226098679
0.221391025
0.21671798
0.212079939
0.207477286
0.202910399
0.198379645
0.193885382
0.189427958
0.185007715
0.180624981
0.176280079
0.171973319
0.167705005
0.163475429
0.159284874
0.155133616
0.151021919
0.146950038
0.142918219
0.138926698
0.134975704
0.131065453
0.127196153
0.123368004
0.119581195
0.115835906
0.112132307
0.10847056
0.104850817
0.101273219
0.0977379004
0.0942449851
0.0907945874
0.0873868129
0.0840217577
0.0806995087
0.0774201438
0.0741837318
0.0709903323
0.067839996
0.0647327645
0.0616686704
0.0586477378
0.0556699814
0.0527354075
0.0498440135
0.0469957882
0.0441907117
0.0414287556
0.0387098828
0.036034048
0.0334011973
0.0308112688
0.028264192
0.0257598884
0.0232982713
0.0208792461
0.0185027101
0.0161685529
0.013876656
0.0116268935
0.00941913171
0.00725322929
0.00512903756
0.00304640039
0.00100515437
0.00099487113
0.00295385387
0.00487197864
0.00674943716
0.008586428
0.0103831565
0.0121398346
0.0138566808
0.0155339201
0.0171717839
0.0187705097
0.0203303413
0.0218515285
0.0233343268
0.024778998
0.0261858094
0.0275550337
0.0288869494
0.0301818404
0.0314399958
0.0326617098
0.0338472818
0.0349970161
0.036111222
0.0371902132
0.0382343084
0.0392438304
0.0402191068
0.0411604692
0.0420682533
0.042942799
0.0437844502
0.0445935543
0.0453704626
0.0461155299
0.0468291145
0.0475115779
0.0481632849
0.0487846034
0.0493759042
0.049937561
0.0504699502
0.0509734507
0.0514484442
0.0518953143
0.0523144473
0.0527062314
0.0530710568
0.0534093157
0.0537214019
0.0540077109
0.05426864
0.0545045875
0.0547159532
0.0549031382
0.0550665443
0.0552065747
0.0553236331
0.0554181239
0.0554904523
0.0555410239
0.0555702446
0.0555785206
0.0555662583
0.055533864
0.0554817439
0.0554103043
0.0553199508
0.0552110888
0.0550841233
0.0549394583
0.0547774973
0.0545986431
0.0544032973
0.0541918604
0.0539647321
0.0537223105
0.0534649925
0.0531931734
0.0529072472
0.0526076061
0.0522946404
0.0519687388
0.051630288
0.0512796725
0.0509172749
0.0505434754
0.0501586521
0.0497631806
0.0493574338
0.0489417825
0.0485165944
0.0480822347
0.0476390659
0.0471874473
0.0467277354
0.0462602837
0.0457854425
0.0453035589
0.0448149767
0.0443200365
0.0438190754
0.0433124269
0.0428004212
0.0422833846
0.0417616401
0.0412355066
0.0407052993
0.0401713298
0.0396339054
0.0390933297
0.0385499021
0.0380039182
0.0374556692
0.0369054422
0.0363535202
0.0358001817
0.0352457012
0.0346903485
0.0341343894
0.0335780848
0.0330216916
0.0324654619
0.0319096433
0.031354479
0.0308002074
0.0302470623
0.029695273
0.0291450639
0.0285966549
0.0280502611
0.0275060927
0.0269643554
0.0264252499
0.0258889722
0.0253557136
0.0248256602
0.0242989938
0.0237758909
0.0232565234
0.0227410583
0.0222296577
0.0217224788
0.0212196741
0.0207213911
0.0202277726
0.0197389563
0.0192550753
0.0187762578
0.018302627
0.0178343015
0.0173713952
0.0169140168
0.0164622705
0.0160162559
0.0155760675
0.0151417953
0.0147135246
0.014291336
0.0138753055
0.0134655042
0.0130619991
0.0126648523
0.0122741214
0.0118898595
0.0115121153
0.011140933
0.0107763526
0.0104184093
0.0100671344
0.00972255481
0.00938469301
0.00905356747
0.00872919243
0.00841157802
0.0081007303
0.00779665132
0.00749933914
0.00720878789
0.00692498783
0.00664792539
0.00637758323
0.00611394028
0.00585697182
0.00560664948
0.00536294137
0.00512581209
0.00489522278
0.00467113121
0.00445349183
0.0042422558
0.00403737111
0.00383878258
0.00364643195
0.00346025796
0.00328019639
0.00310618011
0.00293813921
0.00277600097
0.00261969001
0.00246912832
0.00232423533
0.00218492798
0.00205112078
0.0019227259
0.00179965321
0.00168181038
0.00156910294
0.00146143433
0.001358706
0.00126081745
0.00116766635
0.00107914855
0.000995158206
0.000915587807
0.000840328283
0.000769269059
0.000702298131
0.000639302138
0.000580166435
0.000524775166
0.000473011336
0.000424756882
0.00037989275
0.000338298962
0.00029985469
0.000264438332
0.000231927578
0.000202199487
0.000175130554
0.000150596786
0.00012847377
0.000108636746
9.0960675e-05
7.53203133e-05
6.15902785e-05
4.96451212e-05
3.93593938e-05
3.06077193e-05
2.32648598e-05
1.72057839e-05
1.23057349e-05
8.44029687e-06
5.48546172e-06
3.31769462e-06
1.8139994e-06
8.51983185e-07
3.09920458e-07
6.68164436e-08
2.46987503e-09

shape_id 5
num_samples 1000
0.5
0
0
247
-0.5
0
0
497
0.5
0
0
247

shape_id 6
num_samples 3
0
1
1

shape_id 7
num_samples 3
0
1
129

shape_id 8
num_samples 4
0.0964028777
1
1
0

shape_id 9
num_samples 4
0
9
33
43

shape_id 10
num_samples 250
1.58552035e-07
4.31148038e-06
2.0085379e-05
5.54099506e-05
0.00011829337
0.00021675282
0.000358743277
0.000552084951
0.000804389757
0.00112298726
0.00151485046
0.00198652195
0.00254404071
0.00319287017
0.00393782776
0.0047830166
0.00573175959
0.00678653634
0.00794892342
0.00921953832
0.0105979874
0.0120828183
0.0136714771
0.0153602708
0.0171443348
0.0190176065
0.0209728044
0.0230014141
0.02509368
0.0272386038
0.0294239499
0.0316362574
0.033860859
0.0360819071
0.0382824064
0.0404442538
0.0425482853
0.044574329
0.0465012653
0.0483070936
0.0499690048
0.0514634605
0.052766277
0.0538527159
0.0546975792
0.0552753089
0.0555600918
0.0555259673
0.0551469397
0.0543970932
0.0532507086
0.0516823839
0.0496671545
0.047180616
0.0441990466
0.0406995293
0.0366600744
0.0320597399
0.0268787501
0.0210986127
0.0147022321
0.00767401973
1.94936808e-17
0.00833208786
0.0173326934
0.0270103641
0.0373716601
0.0484210766
0.0601609717
0.0725915028
0.0857105707
0.0995137708
0.113994354
0.129143196
0.144948775
0.161397158
0.178472
0.196154548
0.214423657
0.233255817
0.252625186
0.272503635
0.292860805
0.313664168
0.334879099
0.356468963
0.378395199
0.400617427
0.42309355
0.445779872
0.46863122
0.491601078
0.514641717
0.537704345
0.56073925
0.583695957
0.606523384
0.629170004
0.65158401
0.673713484
0.695506565
0.716911619
0.737877413
0.758353283
0.778289308
0.797636474
0.816346848
0.834373736
0.851671845
0.868197442
0.883908503
0.898764861
0.912728345
0.925762917
0.937834794
0.948912569
0.958967326
0.967972735
0.975905154
0.982743704
0.988470352
0.993069969
0.996530386
0.998842439
1
1
0.998842439
0.996530386
0.993069969
0.988470352
0.982743704
0.975905154
0.967972735
0.958967326
0.948912569
0.937834794
0.925762917
0.912728345
0.898764861
0.883908503
0.868197442
0.851671845
0.834373736
0.816346848
0.797636474
0.778289308
0.758353283
0.737877413
0.716911619
0.695506565
0.673713484
0.65158401
0.629170004
0.606523384
0.583695957
0.56073925
0.537704345
0.514641717
0.491601078
0.46863122
0.445779872
0.42309355
0.400617427
0.378395199
0.356468963
0.334879099
0.313664168
0.292860805
0.272503635
0.252625186
0.233255817
0.214423657
0.196154548
0.178472
0.161397158
0.144948775
0.129143196
0.113994354
0.0995137708
0.0857105707
0.0725915028
0.0601609717
0.0484210766
0.0373716601
0.0270103641
0.0173326934
0.00833208786
1.94936808e-17
0.00767401973
0.0147022321
0.0210986127
0.0268787501
0.0320597399
0.0366600744
0.0406995293
0.0441990466
0.047180616
0.0496671545
0.0516823839
0.0532507086
0.0543970932
0.0551469397
0.0555259673
0.0555600918
0.0552753089
0.0546975792
0.0538527159
0.052766277
0.0514634605
0.0499690048
0.0483070936
0.0465012653
0.044574329
0.0425482853
0.0404442538
0.0382824064
0.0360819071
0.033860859
0.0316362574
0.0294239499
0.0272386038
0.02509368
0.0230014141
0.0209728044
0.0190176065
0.0171443348
0.0153602708
0.0136714771
0.0120828183
0.0105979874
0.00921953832
0.00794892342
0.00678653634
0.00573175959
0.0047830166
0.00393782776
0.00319287017
0.00254404071
0.00198652195
0.00151485046
0.00112298726
0.000804389757
0.000552084951
0.000358743277
0.00021675282
0.00011829337
5.54099506e-05
2.0085379e-05
4.31148038e-06
1.58552035e-07

shape_id 11
num_samples 250
0.5
0
0
59
-0.5
0
0
123
0.5
0
0
59


[SIGNATURE]
# This is the hash of the Pulseq file, calculated right before the [SIGNATURE]
# section was added. It can be reproduced/verified with md5sum if the file
# trimmed to the position right above [SIGNATURE]. The new line character
# preceding [SIGNATURE] BELONGS to the signature (and needs to be sripped away
# for recalculating/verification)
Type md5
Hash 0a50f6fb2f0d948000207b5c038d8e24
